date,symbol,reportedCurrency,cik,fillingDate,acceptedDate,calendarYear,period,revenue,costOfRevenue,grossProfit,grossProfitRatio,researchAndDevelopmentExpenses,generalAndAdministrativeExpenses,sellingAndMarketingExpenses,sellingGeneralAndAdministrativeExpenses,otherExpenses,operatingExpenses,costAndExpenses,interestIncome,interestExpense,depreciationAndAmortization,ebitda,ebitdaratio,operatingIncome,operatingIncomeRatio,totalOtherIncomeExpensesNet,incomeBeforeTax,incomeBeforeTaxRatio,incomeTaxExpense,netIncome,netIncomeRatio,eps,epsdiluted,weightedAverageShsOut,weightedAverageShsOutDil,link,finalLink,revenuePerShare,netIncomePerShare,operatingCashFlowPerShare,freeCashFlowPerShare,cashPerShare,bookValuePerShare,tangibleBookValuePerShare,shareholdersEquityPerShare,interestDebtPerShare,marketCap,enterpriseValue,peRatio,priceToSalesRatio,pocfratio,pfcfRatio,pbRatio,ptbRatio,evToSales,enterpriseValueOverEBITDA,evToOperatingCashFlow,evToFreeCashFlow,earningsYield,freeCashFlowYield,debtToEquity,debtToAssets,netDebtToEBITDA,currentRatio,interestCoverage,incomeQuality,dividendYield,payoutRatio,salesGeneralAndAdministrativeToRevenue,researchAndDdevelopementToRevenue,intangiblesToTotalAssets,capexToOperatingCashFlow,capexToRevenue,capexToDepreciation,stockBasedCompensationToRevenue,grahamNumber,roic,returnOnTangibleAssets,grahamNetNet,workingCapital,tangibleAssetValue,netCurrentAssetValue,investedCapital,averageReceivables,averagePayables,averageInventory,daysSalesOutstanding,daysPayablesOutstanding,daysOfInventoryOnHand,receivablesTurnover,payablesTurnover,inventoryTurnover,roe,capexPerShare,report_date,epsEstimated,time,revenueEstimated,updatedFromDate,fiscalDateEnding,surprise(%),QuarterAvgPrice,QuarterAvgVolume
2025-03-31,PPG,USD,79879,2025-04-30,2025-04-30 14:13:40,2025,Q1,3684000000.0,2142000000.0,1542000000.0,0.4185667752,102000000,838000000.0,0.0,838000000.0,121000000.0,1061000000.0,3203000000.0,43000000.0,56000000.0,121000000.0,679000000.0,0.184310532,481000000.0,0.1305646037,21000000.0,502000000.0,0.1362649294,122000000.0,373000000.0,0.1012486428,1.6359649122807018,1.6295325469637396,228000000,228900000,https://www.sec.gov/Archives/edgar/data/79879/000007987925000133/0000079879-25-000133-index.htm,https://www.sec.gov/Archives/edgar/data/79879/000007987925000133/ppg-20250331.htm,16.157894736842106,1.6359649122807018,0.0,-0.9956140350877192,8.302631578947368,31.105263157894736,31.105263157894736,30.38157894736842,34.7280701754386,24931800000.0,30963800000.0,16.71032171581769,6.767589576547231,0.0,-109.831718061674,3.599220441749675,3.599220441749675,8.404940282301846,45.6020618556701,0.0,-136.4044052863436,0.0149608130981317,-0.0091048379980587,1.1349790674173523,0.3719016083254494,8.883652430044183,1.3536063046085318,8.589285714285714,0.0,0.0061768504480222,0.4128686327077748,0.0,0.0276872964169381,0.0,0.0,0.0567318132464712,0.0,0.0,33.44132078126652,0.0212615232500654,0.0176442762535477,-37.39364035087719,2064000000.0,7092000000.0,-6147000000.0,2064000000.0,3207000000.0,1517500000.0,1980500000.0,83.77035830618892,0.0,88.8655462184874,1.074365704286964,0.0,1.0127659574468084,0.0538472643279919,0.9166666666666666,2025-04-29,1.62,amc,3660181820.0,2025-05-11,2025-03-31,0.0617283950617283,115.28983333333332,2192656.0166666666
2024-12-31,PPG,USD,79879,2025-02-20,2025-02-20 14:40:48,2024,Q4,2165000000.0,1410000000.0,755000000.0,0.3487297921,98000000,188000000.0,0.0,188000000.0,88000000.0,374000000.0,1784000000.0,42000000.0,57000000.0,88000000.0,155000000.0,0.0715935335,381000000.0,0.1759815242,-371000000.0,10000000.0,0.0046189376,53000000.0,-280000000.0,-0.129330254,-1.2,-1.2,233300000,234300000,https://www.sec.gov/Archives/edgar/data/79879/000007987925000034/0000079879-25-000034-index.htm,https://www.sec.gov/Archives/edgar/data/79879/000007987925000034/ppg-20241231.htm,9.279897128161164,-1.2001714530647236,1.4830690098585513,0.6343763394770682,5.820831547363909,29.84140591513073,-2.786112301757394,29.082726103729104,27.6553793399057,27867685000.0,32992685000.0,-24.881861607142856,12.871909930715937,80.5424421965318,188.29516891891893,4.107249078850406,4.107249078850406,15.239115473441109,212.8560322580645,95.3545809248555,222.9235472972973,-0.0100474797242756,0.0053108107114028,0.9425202652910832,0.3290794010188854,33.064516129032256,1.307738332668528,6.684210526315789,-8.046511627906977,0.0056696492729841,-0.5642857142857143,0.0868360277136258,0.0452655889145496,0.3917048319868265,0.5722543352601156,0.0914549653579676,3.046153846153846,0.0046189376443418,,-0.1058059932833893,-0.0236866593350816,-34.08165452207458,1543000000.0,-650000000.0,-5914000000.0,13216000000.0,3319000000.0,3688500000.0,2054500000.0,124.08775981524248,193.7234042553192,117.82978723404256,0.7252931323283082,0.4645799011532125,0.7638136511375948,-0.0412675018422991,0.8486926703814831,2025-01-30,1.64,amc,4050191891.0,2025-04-30,2024-12-31,-0.0182926829268291,125.06015625,1678967.453125
2024-09-30,PPG,USD,79879,2024-10-17,2024-10-17 16:02:18,2024,Q3,4575000000.0,2663000000.0,1912000000.0,0.4179234973,105000000,1062000000.0,0.0,1062000000.0,129000000.0,1296000000.0,3958000000.0,48000000.0,67000000.0,129000000.0,807000000.0,0.1763934426,616000000.0,0.1346448087,-5000000.0,611000000.0,0.1335519126,137000000.0,468000000.0,0.102295082,2.01,2.0,233300000,234300000,https://www.sec.gov/Archives/edgar/data/79879/000007987924000217/0000079879-24-000217-index.htm,https://www.sec.gov/Archives/edgar/data/79879/000007987924000217/ppg-20240930.htm,19.609944277753964,2.0060008572653234,3.2961851693099016,2.657522503214745,5.6665237891127305,34.17059579939991,-1.3330475782254607,33.38191170167167,31.444492070295755,30902918000.0,36920918000.0,16.50796901709402,6.754736174863388,40.18584915474642,49.843416129032256,3.968017205957884,3.968017205957884,8.070146010928962,45.75082775712516,48.01159687906372,59.549867741935486,0.0151442009456841,0.0200628303126585,0.9333590138674884,0.3325555860554488,7.457249070631971,1.58386709367494,9.194029850746269,1.5630081300813008,0.005145145193085,0.3397435897435897,0.2321311475409836,0.0229508196721311,0.3789459236892671,0.1937581274382314,0.0325683060109289,1.1640625,0.0021857923497267,38.8161464926768,0.0274690398959807,0.0344751381215469,-37.25996570938705,2917000000.0,-311000000.0,-5973000000.0,15616000000.0,3749000000.0,4086500000.0,2281000000.0,71.8622950819672,146.74427337589185,76.48141194141945,1.252395291541199,0.613311837862736,1.1767565178965975,0.0600924499229583,0.6386626660951564,2024-10-16,2.15,amc,4662865493.0,2025-04-25,2024-09-30,-0.0093023255813953,126.23359375,1484999.0
2024-06-30,PPG,USD,79879,2024-07-19,2024-07-19 14:08:38,2024,Q2,4794000000.0,2889000000.0,1905000000.0,0.3973717146,111000000,1077000000.0,0.0,1077000000.0,-28000000.0,1188000000.0,4077000000.0,45000000.0,62000000.0,155000000.0,911000000.0,0.1900292032,717000000.0,0.1495619524,-24000000.0,693000000.0,0.1445556946,156000000.0,528000000.0,0.1101376721,2.25,2.24,234500000,235700000,https://www.sec.gov/Archives/edgar/data/79879/000007987924000167/0000079879-24-000167-index.htm,https://www.sec.gov/Archives/edgar/data/79879/000007987924000167/ppg-20240630.htm,20.44349680170576,2.251599147121535,1.556503198294243,1.0533049040511726,5.08315565031983,33.88059701492537,-1.5692963752665243,33.12153518123667,30.976545842217483,29073310000.0,35144310000.0,13.765771780303032,6.064520233625365,79.65290410958904,117.7057085020243,3.7431839835200207,3.7431839835200207,7.330894868585732,38.57772777167947,96.2857808219178,142.2846558704453,0.018160986829501,0.0084957646721339,0.927256340929574,0.3314464540475861,6.66410537870472,1.4897607655502392,11.564516129032258,0.6912878787878788,0.0052281628751593,0.2878787878787879,0.2246558197747184,0.023153942428035,0.3825762805467347,0.3232876712328767,0.0246141009595327,0.7612903225806451,0.0020859407592824,40.96302550132423,0.0316922823910445,0.0393559928443649,-36.49786780383795,2559000000.0,-368000000.0,-6000000000.0,15320000000.0,3713000000.0,4067000000.0,2315000000.0,72.18397997496871,119.34579439252336,71.61993769470405,1.246814044213264,0.7541111981205951,1.2566333188342758,0.0679799150251062,0.5031982942430704,2024-07-18,2.48,amc,4901785909.0,2025-04-25,2024-06-30,0.0080645161290322,132.47126984126984,1570085.0793650793
2024-03-31,PPG,USD,79879,2024-04-19,2024-04-19 14:34:36,2024,Q1,4311000000.0,2589000000.0,1722000000.0,0.3994432846,109000000,1064000000.0,0.0,1064000000.0,-1000000.0,1173000000.0,3762000000.0,42000000.0,55000000.0,144000000.0,736000000.0,0.1707260496,549000000.0,0.127348643,-164000000.0,538000000.0,0.1247970309,129000000.0,400000000.0,0.0927858965,1.7,1.69,235600000,236900000,https://www.sec.gov/Archives/edgar/data/79879/000007987924000107/0000079879-24-000107-index.htm,https://www.sec.gov/Archives/edgar/data/79879/000007987924000107/ppg-20240331.htm,18.29796264855688,1.697792869269949,-0.2546689303904924,-1.3412563667232598,5.241935483870968,34.49066213921901,-1.7529711375212225,33.70543293718166,30.127334465195247,33780328000.0,39642328000.0,21.112705,7.835845047552772,-563.0054666666666,-106.89977215189872,4.253913612895102,4.253913612895102,9.195622361401067,53.861858695652174,-660.7054666666667,-125.45040506329114,0.0118412112517083,-0.0093545568888496,0.8869160055408639,0.3220835048246215,7.9646739130434785,1.551891563827635,9.981818181818182,-0.15,0.0045292633037784,0.3825,0.2468104848063094,0.0252841568081651,0.3904970960808524,-4.266666666666667,0.0593829737879842,1.7777777777777777,0.0027835768963117,35.882572137028845,0.0239491853750845,0.0300120048019207,-36.73493208828523,2728000000.0,-413000000.0,-6070000000.0,15708000000.0,3430000000.0,3936000000.0,2229000000.0,74.75991649269311,149.58285052143685,81.03128621089223,1.2038536721586148,0.601673251220079,1.1106821106821108,0.0503714897368089,1.0865874363327674,2024-04-18,1.86,amc,4431765190.0,2025-04-25,2024-03-31,0.0,142.1160655737705,1785203.426229508
2023-12-31,PPG,USD,79879,2024-02-15,2024-02-15 13:10:22,2023,Q4,4350000000.0,2531000000.0,1819000000.0,0.4181609195,111000000,1114000000.0,285000000.0,1114000000.0,-20000000.0,1375000000.0,3906000000.0,44000000.0,57000000.0,180000000.0,428000000.0,0.0983908046,179000000.0,0.0411494253,-213000000.0,192000000.0,0.044137931,89000000.0,90000000.0,0.0206896552,0.38,0.38,236200000,237300000,https://www.sec.gov/Archives/edgar/data/79879/000007987924000040/0000079879-24-000040-index.htm,https://www.sec.gov/Archives/edgar/data/79879/000007987924000040/ppg-20231231.htm,18.416596104995765,0.3810330228619814,3.8018628281117697,3.0906011854360718,6.727349703640982,33.96697713801863,-2.544453852667232,33.158340389500424,29.3268416596105,35323710000.0,40679710000.0,98.12141666666668,8.120393103448276,39.33597995545657,48.38864383561644,4.510177477017365,4.510177477017365,9.351657471264367,95.04605140186916,45.300345211581295,55.725630136986304,0.0025478637436441,0.0206660059206691,0.877170582226762,0.3173649928396544,12.514018691588785,1.470320538187574,3.1403508771929824,9.977777777777778,0.004331368364195,1.7,0.2560919540229885,0.0255172413793103,0.398392386935834,0.1870824053452116,0.0386206896551724,0.9333333333333332,0.0039080459770114,16.8604421683775,0.0055548123831009,0.0069108500345542,-36.0383149872989,2377000000.0,-601000000.0,-6193000000.0,15477000000.0,3445500000.0,3889500000.0,2172000000.0,67.84137931034482,126.91031212959304,75.63413670485973,1.3266239707227814,0.7091622303166153,1.1899388810531264,0.0114913176710929,0.7112616426756986,2024-01-18,1.5,amc,4267500000.0,2025-04-25,2023-12-31,0.02,135.3220634920635,1601265.5873015872
2023-09-30,PPG,USD,79879,2023-10-19,2023-10-19 15:49:42,2023,Q3,4644000000.0,2752000000.0,1892000000.0,0.4074074074,108000000,1047000000.0,0.0,1047000000.0,-13000000.0,1297000000.0,4062000000.0,39000000.0,64000000.0,145000000.0,766000000.0,0.1649440138,584000000.0,0.1257536606,-35000000.0,557000000.0,0.1199397071,121000000.0,426000000.0,0.0917312661,1.8,1.79,236200000,237500000,https://www.sec.gov/Archives/edgar/data/79879/000007987923000065/0000079879-23-000065-index.htm,https://www.sec.gov/Archives/edgar/data/79879/000007987923000065/ppg-20230930.htm,19.66130397967824,1.8035563082133783,3.7764606265876375,3.1879762912785776,5.427603725656224,33.59441151566469,-2.802709568162574,32.81541066892464,29.9618966977138,30658760000.000004,36453760000.0,17.992230046948357,6.601800172265289,34.370807174887894,40.71548472775565,3.9554586504967104,3.9554586504967104,7.849646856158484,47.58976501305483,40.86744394618834,48.41136786188579,0.0138948868121215,0.0245606802101585,0.9047864791639788,0.3261708757732198,7.565274151436031,1.48078431372549,9.125,2.0458715596330275,0.0049904170944943,0.3591549295774648,0.2254521963824289,0.0232558139534883,0.3998418678201014,0.155829596412556,0.0299310938845822,0.9788732394366196,0.0017226528854435,36.49177880930733,0.0262947742254951,0.0330130192188468,-35.84462320067739,2452000000.0,-662000000.0,-6014000000.0,15280000000.0,3716500000.0,4258000000.0,2361500000.0,70.0,137.68168604651163,72.50363372093024,1.2857142857142858,0.6536817102137767,1.241317095173658,0.0549606502386788,0.5884843353090601,2023-10-18,1.94,amc,4638940000.0,2025-04-25,2023-09-30,0.0670103092783504,140.3736507936508,1473424.5873015872
2023-06-30,PPG,USD,79879,2023-07-21,2023-07-21 15:41:30,2023,Q2,4872000000.0,2866000000.0,2006000000.0,0.4117405583,110000000,1069000000.0,0.0,1069000000.0,-13000000.0,1312000000.0,4191000000.0,32000000.0,67000000.0,143000000.0,856000000.0,0.1756978654,687000000.0,0.1410098522,-38000000.0,646000000.0,0.1325944171,149000000.0,490000000.0,0.1005747126,2.08,2.06,236000000,237300000,https://www.sec.gov/Archives/edgar/data/79879/000007987923000045/0000079879-23-000045-index.htm,https://www.sec.gov/Archives/edgar/data/79879/000007987923000045/ppg-20230630.htm,20.64406779661017,2.0762711864406778,2.2711864406779663,1.7542372881355932,5.491525423728813,68.63559322033899,31.40254237288136,32.26271186440678,1.0805084745762712,34998800000.0,33958800000.0,17.8565306122449,7.183661740558292,65.29626865671642,84.53816425120773,4.596637772524297,4.596637772524297,6.970197044334976,39.6714953271028,63.35597014925373,82.02608695652174,0.0140004800164577,0.0118289769934969,0.0246913580246913,0.008698066068289,-1.2149532710280373,1.4896602658788771,10.25373134328358,41.23076923076923,0.0041715715967404,0.2979591836734694,0.2194170771756978,0.0225779967159277,0.4065420560747663,0.2276119402985074,0.0250410509031198,0.0412301453193646,0.0034893267651888,38.8225208920206,0.0304057610109446,0.0382006704607468,-0.0052966101694915,2652000000.0,7411000000.0,2652000000.0,15693000000.0,3708000000.0,4201000000.0,2552500000.0,70.58497536945812,135.2198185624564,78.6950453593859,1.2750588851086102,0.6655829075708314,1.14365522745411,0.0643551352771211,0.5169491525423728,2023-07-20,2.14,amc,4835230000.0,2025-04-25,2023-06-30,0.0514018691588784,139.56,1496234.4516129033
2023-03-31,PPG,USD,79879,2023-04-21,2023-04-21 15:12:20,2023,Q1,4380000000.0,2596000000.0,1784000000.0,0.4073059361,104000000,1182000000.0,0.0,1182000000.0,22000000.0,1419000000.0,3993000000.0,25000000.0,59000000.0,136000000.0,551000000.0,0.1257990868,567000000.0,0.1294520548,-199000000.0,353000000.0,0.0805936073,80000000.0,264000000.0,0.0602739726,1.12,1.11,235800000,236900000,https://www.sec.gov/Archives/edgar/data/79879/000007987923000026/0000079879-23-000026-index.htm,https://www.sec.gov/Archives/edgar/data/79879/000007987923000026/ppg-20230331.htm,18.575063613231556,1.1195928753180662,0.3604749787955895,-0.1484308736217133,6.2849872773536894,73.0746395250212,36.58184902459712,30.28837998303647,31.1704834605598,31498164000.000004,37363164000.0,29.82780681818182,7.191361643835617,370.5666352941177,-899.9475428571429,4.41027219266312,4.41027219266312,8.530402739726027,67.80973502722323,439.5666352941177,-1067.5189714285714,0.0083814408992219,-0.0011111758767907,1.02086250350042,0.3299244309697271,10.644283121597097,1.6830320460147905,9.610169491525424,0.3113553113553113,0.0046351908003272,0.553030303030303,0.2698630136986301,0.0237442922374429,0.3893841350287343,1.411764705882353,0.0273972602739726,0.9022556390977444,0.0038812785388127,27.6222686389716,0.0261588866211653,0.0195642507781236,2.58587786259542,3325000000.0,8626000000.0,3325000000.0,16114000000.0,3449000000.0,3317000000.0,2435500000.0,73.86986301369863,142.0030816640986,90.1040061633282,1.2183588317107092,0.6337890625,0.9988457098884186,0.0369644357322878,0.5089058524173028,2023-04-20,1.55,amc,4391020000.0,2025-04-25,2023-03-31,0.1741935483870967,129.00645161290322,1426025.0483870967
2022-12-31,PPG,USD,79879,2023-02-16,2023-02-16 15:02:36,2022,Q4,4185000000.0,2623000000.0,1562000000.0,0.3732377539,108000000,955000000.0,252000000.0,955000000.0,9000000.0,1196000000.0,3833000000.0,20000000.0,53000000.0,135000000.0,513000000.0,0.1225806452,363000000.0,0.0867383513,-55000000.0,319000000.0,0.0762246117,73000000.0,238000000.0,0.056869773,1.01,1.01,235500000,236600000,https://www.sec.gov/Archives/edgar/data/79879/000007987923000007/0000079879-23-000007-index.htm,https://www.sec.gov/Archives/edgar/data/79879/000007987923000007/ppg-20221231.htm,17.770700636942674,1.010615711252654,2.492569002123142,1.8556263269639064,4.900212314225053,28.48832271762208,-7.571125265392781,27.99150743099788,32.64543524416136,29611770000.0,36147770000.0,31.104800420168065,7.075691756272401,50.4459454855196,67.76148741418764,4.492076759708738,4.492076759708738,8.637459976105138,70.46348927875243,61.58052810902896,82.71800915331808,0.0080373446099304,0.0147576453552084,1.1582220873786409,0.3680582337061319,12.74074074074074,1.5193814869730988,6.849056603773585,2.386178861788618,0.0049304719035707,0.6134453781512605,0.2281959378733572,0.0258064516129032,0.4093713844967219,0.2555366269165247,0.03584229390681,1.1278195488721805,0.0019115890083632,25.228848305199488,0.0167603301690072,0.0194253999347045,-39.353503184713375,2452000000.0,-1783000000.0,-6862000000.0,15101000000.0,3422000000.0,3418500000.0,2341500000.0,71.03225806451613,87.08349218452155,77.9565383149066,1.2670299727520435,1.0334909377462569,1.1544894366197185,0.0361043689320388,0.6369426751592356,2023-01-19,1.13,amc,4114608406.0,2025-04-25,2022-12-31,0.0796460176991151,122.49539682539682,1281287.365079365
2022-09-30,PPG,USD,79879,2022-10-20,2022-10-20 16:05:51,2022,Q3,4468000000.0,2821000000.0,1647000000.0,0.3686213071,110000000,931000000.0,0.0,931000000.0,-21000000.0,1176000000.0,4018000000.0,14000000.0,46000000.0,138000000.0,607000000.0,0.1358549687,476000000.0,0.1065353626,-53000000.0,418000000.0,0.0935541629,79000000.0,329000000.0,0.0736347359,1.4,1.39,235500000,236600000,https://www.sec.gov/Archives/edgar/data/79879/000007987922000078/0000079879-22-000078-index.htm,https://www.sec.gov/Archives/edgar/data/79879/000007987922000078/ppg-20220930.htm,18.9723991507431,1.3970276008492568,2.1740976645435244,1.732484076433121,4.624203821656051,26.08917197452229,-8.883227176220807,25.62208067940552,32.47133757961783,26067495000.0,32639495000.0,19.80812689969605,5.834264771709937,50.913076171875,63.89091911764706,4.320101922439509,4.320101922439509,7.305168979409132,53.77182042833608,63.749013671875,79.99876225490196,0.0126210823095966,0.0156516765419922,1.2596950613191913,0.364241901475944,10.827018121911038,1.5205034510759237,10.347826086956522,1.5103244837758112,0.0055624830847766,0.4407294832826747,0.2083706356311548,0.0246195165622202,0.3946712670116925,0.203125,0.0232766338406445,0.7703703703703704,0.0020143240823634,28.37925232907149,0.0232385189930147,0.0260449651678277,-41.50212314225053,2564000000.0,-2092000000.0,-7234000000.0,14755000000.0,3679500000.0,4400500000.0,2446000000.0,71.32721575649059,137.1534916696207,76.9195320808224,1.261790454673821,0.6561991160735055,1.1700539195354624,0.0545243619489559,0.4416135881104034,2022-10-19,1.65,amc,4427379560.0,2025-04-25,2022-09-30,0.006060606060606,123.5840625,1216821.578125
2022-06-30,PPG,USD,79879,2022-07-22,2022-07-22 15:03:53,2022,Q2,4691000000.0,2954000000.0,1737000000.0,0.3702835216,115000000,982000000.0,0.0,982000000.0,34000000.0,1238000000.0,4192000000.0,11000000.0,38000000.0,143000000.0,750000000.0,0.1598806225,503000000.0,0.1072266041,67000000.0,566000000.0,0.1206565764,118000000.0,441000000.0,0.094009806,1.86,1.85,236400000,237600000,https://www.sec.gov/Archives/edgar/data/79879/000007987922000049/0000079879-22-000049-index.htm,https://www.sec.gov/Archives/edgar/data/79879/000007987922000049/ppg-20220630.htm,19.84348561759729,1.865482233502538,0.7106598984771574,0.4145516074450084,4.196277495769881,26.611675126903556,-9.631979695431472,26.150592216582066,33.642131979695435,27029976000.0,34013976000.0,15.323115646258504,5.7620925175868685,160.89271428571428,275.81608163265304,4.372367518602394,4.372367518602394,7.25090087401407,45.351968,202.4641428571429,347.081387755102,0.0163152198137356,0.0036256044030523,1.2803299902944032,0.3669108103096606,9.312,1.5016456921587609,13.236842105263158,0.375,0.0051794348615033,0.3174603174603174,0.2093370283521637,0.024515028778512,0.3971815316150565,0.4166666666666667,0.0149221914303986,0.4964539007092198,0.0025580899594969,33.13046885347506,0.0232854296185737,0.0339126422639187,-43.08375634517766,2591000000.0,-2277000000.0,-7525000000.0,15206000000.0,3738500000.0,4497000000.0,2460000000.0,73.25090599019398,137.16316858496953,75.58903182125931,1.2286537454164483,0.6561528209684585,1.1906489318823057,0.0713361371724361,0.2961082910321489,2022-07-21,1.73,amc,4670576787.0,2025-04-25,2022-06-30,0.046242774566474,124.97854838709678,1544870.9193548388
2022-03-31,PPG,USD,79879,2022-04-22,2022-04-22 10:01:12,2022,Q1,4308000000.0,2698000000.0,1610000000.0,0.3737233055,115000000,974000000.0,0.0,974000000.0,13000000.0,1234000000.0,4209000000.0,9000000.0,30000000.0,151000000.0,256000000.0,0.0594243268,376000000.0,0.08727948,-298000000.0,78000000.0,0.0181058496,55000000.0,18000000.0,0.004178273,0.0761,0.0756,236600000,238200000,https://www.sec.gov/Archives/edgar/data/79879/000007987922000025/0000079879-22-000025-index.htm,https://www.sec.gov/Archives/edgar/data/79879/000007987922000025/ppg-20220331.htm,18.20794590025359,0.0760777683854607,-1.2848689771766697,-2.1048182586644124,4.366018596787828,26.76669484361792,-10.519864750633982,26.280642434488588,31.16229923922232,31011162000.0,37394162000.0,430.7105833333333,7.1985055710306405,-102.01040131578948,-62.27140963855422,4.987321003538115,4.987321003538115,8.680167595171774,146.0709453125,-123.00711184210526,-75.08867871485944,0.0005804361668227,-0.0160587339487633,1.1809263428755228,0.4004035116418561,24.93359375,1.4746713070378965,12.533333333333331,-13.217391304347826,0.0044822570660202,7.722222222222222,0.2260909935004642,0.02669452181987,0.481051311412836,-0.6381578947368421,0.0450324976787372,1.3379310344827586,0.0013927576601671,6.707151715402223,0.0063664539116735,0.0018913523169065,-29.6248943364328,2455000000.0,-2489000000.0,-4379000000.0,15478000000.0,3405500000.0,4113500000.0,2305000000.0,76.44150417827298,149.8443291326909,81.36026686434397,1.1773708663569282,0.6006233303650935,1.106191061910619,0.0028948214860083,0.819949281487743,2022-04-21,1.12,amc,4242161798.0,2025-04-25,2022-03-31,0.2232142857142857,145.3716129032258,1708954.0161290322
2021-12-31,PPG,USD,79879,2022-02-17,2022-02-17 11:55:46,2021,Q4,4190000000.0,2692000000.0,1498000000.0,0.3575178998,116000000,1034000000.0,0.0,1034000000.0,-2000000.0,1299000000.0,3885000000.0,7000000.0,30000000.0,157000000.0,476000000.0,0.1136038186,284000000.0,0.0677804296,-56000000.0,282000000.0,0.0673031026,4000000.0,286000000.0,0.0682577566,1.2,1.2,237400000,239200000,https://www.sec.gov/Archives/edgar/data/79879/000007987922000009/0000079879-22-000009-index.htm,https://www.sec.gov/Archives/edgar/data/79879/000007987922000009/ppg-20211231.htm,17.649536647009267,1.2047177759056444,1.9208087615838247,1.2847514743049706,4.5155855096882895,27.005054759898904,-11.036225779275483,26.478517270429656,0.9351305812973884,40937256000.0,40124256000.0,35.78431468531468,9.77022816229117,89.77468421052632,134.22051147540984,6.512449252306713,6.512449252306713,9.576194749403342,84.29465546218488,87.99178947368421,131.55493770491805,0.006986301182473,0.0074504260862037,0.03054406617881,0.008992553042012,-1.7079831932773109,1.4204425711275026,9.466666666666669,1.640287769784173,0.0034198677117,0.4895104895104895,0.2467780429594272,0.0276849642004773,0.4229778464708913,0.3311403508771929,0.0360381861575179,1.0134228187919463,0.0042959427207637,26.790495698932155,0.0165028960333435,0.0232142857142857,-43.885846672283066,1995000000.0,-2620000000.0,-8200000000.0,15359000000.0,3267000000.0,4008500000.0,2210000000.0,67.70405727923628,124.869985141159,72.5817236255572,1.3293147208121827,0.7207496653279786,1.239981575310917,0.0454979319121858,0.6360572872788542,2022-01-20,1.17,amc,4255290000.0,2025-04-25,2021-12-31,0.076923076923077,160.68078125,1265187.09375
2021-09-30,PPG,USD,79879,2021-10-21,2021-10-21 17:11:52,2021,Q3,4372000000.0,2733000000.0,1639000000.0,0.3748856359,114000000,950000000.0,0.0,950000000.0,-1000000.0,1210000000.0,3908000000.0,7000000.0,30000000.0,151000000.0,629000000.0,0.1438700823,446000000.0,0.1020128088,12000000.0,441000000.0,0.1008691674,96000000.0,344000000.0,0.0786825252,1.45,1.43,237900000,239800000,https://www.sec.gov/Archives/edgar/data/79879/000007987921000078/0000079879-21-000078-index.htm,https://www.sec.gov/Archives/edgar/data/79879/000007987921000078/ppg-20210930.htm,18.377469525010508,1.4459857082807903,2.206809583858764,1.878940731399748,5.48129466162253,26.944094157208912,-11.08869272803699,26.28415300546448,29.50819672131147,34022079000.0,39796079000.0,24.725348110465116,7.781811299176577,64.80395999999999,76.11203355704697,5.440920997920998,5.440920997920998,9.102488334858188,63.26880604133545,75.80205523809524,89.02925950782998,0.0101110811011872,0.0131385268960194,1.1178634255557331,0.3890898970219872,9.179650238473767,1.3362621270364268,14.866666666666667,1.5217391304347827,0.0041149748667622,0.4069767441860465,0.217291857273559,0.026075022872827,0.5036459782911217,0.1485714285714285,0.0178408051235132,0.5342465753424658,0.000914913083257,29.2428874429965,0.0199241414245003,0.0385779970842211,-27.700714585960487,1837000000.0,-2638000000.0,-4255000000.0,15141000000.0,3440000000.0,4254000000.0,2237500000.0,69.62031107044831,141.0098792535675,74.06147091108672,1.2927261975162625,0.638253152732368,1.2152067585593598,0.0550135934751319,0.3278688524590163,2021-10-20,1.58,amc,4332470000.0,2025-04-25,2021-09-30,0.0696202531645568,160.42828125,1115370.640625
2021-06-30,PPG,USD,79879,2021-07-20,2021-07-20 13:42:02,2021,Q2,4359000000.0,2629000000.0,1730000000.0,0.3968800184,107000000,955000000.0,0.0,955000000.0,-10000000.0,1199000000.0,3741000000.0,6000000.0,31000000.0,149000000.0,776000000.0,0.1780224822,548000000.0,0.1257169075,62000000.0,593000000.0,0.1360403762,160000000.0,431000000.0,0.098875889,1.81,1.8,237800000,239800000,https://www.sec.gov/Archives/edgar/data/79879/000007987921000044/0000079879-21-000044-index.htm,https://www.sec.gov/Archives/edgar/data/79879/000007987921000044/ppg-20210630.htm,18.330529857022707,1.812447434819176,2.5399495374264087,2.2792262405382675,5.487804878048781,26.959629941127,-11.968040370058873,26.248948696383515,31.042893187552565,40371306000.0,46527306000.0,23.41723085846868,9.261598072952513,66.8399105960265,74.48580442804428,6.467687600128165,6.467687600128165,10.673848589125946,59.95786855670103,77.03196357615894,85.84373800738007,0.01067589936278,0.0134253769248881,1.1776674142902916,0.4020015312260745,7.93298969072165,1.3567784256559767,17.677419354838708,1.394919168591224,0.0031705687202687,0.296983758700696,0.2190869465473732,0.0245469144299151,0.5062342775894126,0.1026490066225165,0.0142234457444367,0.4525547445255474,0.0041293874741913,32.717486058037224,0.0222017229436735,0.0477350758666519,-28.736333052985703,1958000000.0,-2846000000.0,-4429000000.0,15573000000.0,3266000000.0,3960000000.0,2070000000.0,72.22298692360633,144.67097755800685,76.20387980220616,1.2461406518010292,0.6221012778040701,1.1810422282120396,0.0690483819288689,0.2607232968881413,2021-07-19,2.19,amc,4338110000.0,2025-04-25,2021-06-30,-0.1141552511415525,171.50333333333333,1323015.9523809524
2021-03-31,PPG,USD,79879,2021-04-16,2021-04-16 13:33:34,2021,Q1,3881000000.0,2232000000.0,1649000000.0,0.4248904921,102000000,891000000.0,0.0,891000000.0,-4000000.0,1122000000.0,3358000000.0,6000000.0,30000000.0,129000000.0,642000000.0,0.1654212832,513000000.0,0.1321824272,-28000000.0,499000000.0,0.1285751095,114000000.0,378000000.0,0.0973975779,1.59,1.58,237400000,239000000,https://www.sec.gov/Archives/edgar/data/79879/000007987921000023/0000079879-21-000023-index.htm,https://www.sec.gov/Archives/edgar/data/79879/000007987921000023/ppg-20210331.htm,16.34793597304128,1.5922493681550127,-0.096882898062342,-0.4338668913226621,8.121314237573715,25.143218197135635,-6.255265374894693,24.595619208087616,27.07245155855097,35671724000.0,40260724000.0,23.59241005291005,9.191374388044318,-1550.9445217391303,-346.32741747572817,6.109218016783696,6.109218016783696,10.37380159752641,62.71140809968848,-1750.4662608695653,-390.8808155339806,0.010596628298649,-0.0028874410443408,1.0955643089570133,0.3894672754946727,7.14797507788162,1.4333984375,17.1,-0.0597402597402597,0.0035882762492779,0.3386243386243386,0.229580005153311,0.0262818861118268,0.4538203957382039,-3.4782608695652173,0.0206132440092759,0.6201550387596899,0.0043803143519711,29.68422275768431,0.0243420420176145,0.0421357708170772,-22.30623420387532,2219000000.0,-1485000000.0,-3117000000.0,13576000000.0,2880000000.0,2976500000.0,1824500000.0,70.35815511466117,148.9516129032258,77.1774193548387,1.2791694133157547,0.6042230644288035,1.1661442006269591,0.064737112519267,0.3369839932603201,2021-04-15,1.56,amc,3669870000.0,2025-04-25,2021-03-31,0.205128205128205,143.2737704918033,1474863.8852459015
2020-12-31,PPG,USD,79879,2021-02-18,2021-02-18 13:00:12,2020,Q4,3757000000.0,2140000000.0,1617000000.0,0.430396593,100000000,882000000.0,223000000.0,882000000.0,-64000000.0,1107000000.0,3386000000.0,5000000.0,31000000.0,125000000.0,582000000.0,0.1549108331,457000000.0,0.1216396061,-172000000.0,345000000.0,0.0918285866,67000000.0,272000000.0,0.07239819,1.15,1.14,237200000,238600000,https://www.sec.gov/Archives/edgar/data/79879/000007987921000008/0000079879-21-000008-index.htm,https://www.sec.gov/Archives/edgar/data/79879/000007987921000008/ppg-20201231.htm,15.838954468802696,1.1467116357504217,4.072512647554806,3.5075885328836427,8.102866779089377,24.515177065767286,-6.905564924114671,23.98397976391231,0.8895446880269815,34208984000.0,32562984000.0,31.44208088235294,9.1053989885547,35.413026915113875,41.11656730769231,6.013180523817894,6.013180523817894,8.667283470854406,55.95014432989691,33.709093167701866,39.13820192307692,0.0079511276920705,0.024321096469863,0.0316400070311126,0.0092043362650848,-2.828178694158076,1.4115448504983388,14.741935483870968,3.474820143884892,0.0037417071492096,0.4705882352941176,0.2347617780143731,0.0266169816342826,0.3811106565759869,0.1387163561076604,0.0356667553899387,1.072,0.0039925472451424,24.87591093819119,0.0234882813727719,0.022473766834669,-37.55059021922428,1982000000.0,-1638000000.0,-6943000000.0,13409000000.0,2784500000.0,2822000000.0,1703500000.0,65.3021027415491,95.00467289719629,72.96728971962618,1.3782098312545854,0.9473218238158476,1.2334293948126802,0.047811566180348,0.5649241146711635,2021-01-21,1.57,amc,3733221518.0,2025-04-25,2020-12-31,0.0127388535031847,139.22296875,1216365.484375
2020-09-30,PPG,USD,79879,2020-10-20,2020-10-20 12:20:13,2020,Q3,3685000000.0,2026000000.0,1659000000.0,0.4502035278,92000000,836000000.0,0.0,836000000.0,-2000000.0,1060000000.0,3083000000.0,4000000.0,34000000.0,132000000.0,710000000.0,0.1926729986,578000000.0,0.1568521031,-29000000.0,572000000.0,0.1552238806,124000000.0,442000000.0,0.1199457259,1.87,1.86,236800000,237900000,https://www.sec.gov/Archives/edgar/data/79879/000007987920000056/0000079879-20-000056-index.htm,https://www.sec.gov/Archives/edgar/data/79879/000007987920000056/ppg-20200930.htm,15.561655405405403,1.866554054054054,3.555743243243243,3.2263513513513518,8.847128378378379,22.905405405405407,-3.90625,22.423986486486488,0.8783783783783784,28908544000.0,27074544000.0,16.350986425339368,7.844923744911805,34.333187648456054,37.83840837696335,5.444170244821092,5.444170244821092,7.34723039348711,38.13316056338028,32.1550403800475,35.43788481675393,0.0152895974283588,0.0264281729304665,0.0327683615819209,0.0095081967213114,-2.583098591549296,1.5178842401907653,17.0,1.8794642857142856,0.0043931648719492,0.2873303167420814,0.226865671641791,0.0249660786974219,0.3469398907103825,0.0926365795724465,0.0211668928086838,0.5909090909090909,0.0037991858887381,30.687955534689912,0.030774935465622,0.0369843527738264,-32.9930320945946,2389000000.0,-925000000.0,-5874000000.0,12464000000.0,2758000000.0,3173500000.0,1689000000.0,69.43554952510176,150.37018756169792,74.27443237907207,1.2961660218079494,0.5985228951255539,1.2117224880382775,0.0832391713747646,0.3293918918918919,2020-10-19,1.92,amc,3665906735.0,2025-04-25,2020-09-30,0.0052083333333333,116.86625,1406766.203125
2020-06-30,PPG,USD,79879,2020-07-17,2020-07-17 13:33:17,2020,Q2,3015000000.0,1703000000.0,1312000000.0,0.4351575456,86000000,766000000.0,0.0,766000000.0,-10000000.0,975000000.0,2853000000.0,5000000.0,41000000.0,123000000.0,439000000.0,0.1456053068,316000000.0,0.1048092869,-211000000.0,126000000.0,0.0417910448,29000000.0,102000000.0,0.0338308458,0.43,0.43,236600000,237600000,https://www.sec.gov/Archives/edgar/data/79879/000007987920000044/0000079879-20-000044-index.htm,https://www.sec.gov/Archives/edgar/data/79879/000007987920000044/ppg-20200630.htm,12.743026204564666,0.4311073541842772,2.032967032967033,1.8005071851225698,9.7083685545224,20.870667793744715,-5.431107354184277,20.422654268808117,0.8960270498732037,25093796000.0,23012796000.0,61.50440196078432,8.322983747927031,52.170054054054056,58.90562441314554,5.193252483443709,5.193252483443709,7.63276815920398,52.42094760820046,47.843650727650726,54.020647887323946,0.00406474970945,0.0169763076100562,0.0353890728476821,0.009411117226197,-4.740318906605922,1.3521207489491784,7.7073170731707314,4.958762886597938,0.0048219089690535,1.1862745098039216,0.2540630182421227,0.0285240464344941,0.3424876169510181,0.1143451143451143,0.0182421227197346,0.4471544715447154,0.002653399668325,14.07472983978866,0.0162548337077269,0.0085377082112664,-34.13884192730347,1843000000.0,-1285000000.0,-6155000000.0,11757000000.0,2738500000.0,3105500000.0,1782500000.0,79.7910447761194,156.5355255431591,90.15854374633,1.127946127946128,0.574949358541526,0.9982415005861665,0.0211092715231788,0.2324598478444632,2020-07-16,0.65,amc,2162272727.0,2025-04-25,2020-06-30,0.523076923076923,96.33825396825398,1852281.3333333333
2020-03-31,PPG,USD,79879,2020-04-28,2020-04-28 15:53:01,2020,Q1,3377000000.0,1908000000.0,1469000000.0,0.4350014806,101000000,905000000.0,0.0,905000000.0,8000000.0,1135000000.0,3035000000.0,9000000.0,32000000.0,129000000.0,437000000.0,0.1294047972,308000000.0,0.0912052117,-15000000.0,319000000.0,0.0944625407,71000000.0,243000000.0,0.0719573586,1.03,1.02,236500000,237700000,https://www.sec.gov/Archives/edgar/data/79879/000007987920000028/0000079879-20-000028-index.htm,https://www.sec.gov/Archives/edgar/data/79879/000007987920000028/ppg-20200331.htm,14.27906976744186,1.0274841437632136,-0.6723044397463002,-0.828752642706131,8.186046511627907,20.452431289640597,-5.59830866807611,19.97040169133192,0.8372093023255814,19771400000.0,18051400000.0,20.34094650205761,5.854723127035831,-124.34842767295598,-100.87448979591836,4.18619521490578,4.18619521490578,5.345395321291087,41.30755148741419,-113.5308176100629,-92.09897959183674,0.0122904801885551,-0.009913309123279,0.0351471522337497,0.0091895482728077,-3.935926773455378,1.3601539942252163,9.625,-0.6411290322580645,0.0060693729326198,0.4938271604938271,0.2679893396505774,0.029908202546639,0.3410651018600531,-0.2327044025157232,0.0109564702398578,0.2868217054263566,0.0020728457210541,21.48682385450619,0.0163367862360693,0.0204150214231706,-34.91966173361522,1871000000.0,-1324000000.0,-6161000000.0,11679000000.0,2780000000.0,3079500000.0,1784500000.0,74.72904945217648,153.25471698113208,87.68867924528301,1.2043509272467905,0.5872576177285319,1.0263582571274878,0.051450349354224,0.1564482029598308,2020-04-27,1.18,amc,3348621848.0,2025-04-25,2020-03-31,0.0084745762711864,111.10548387096776,2183759.870967742
2019-12-31,PPG,USD,79879,2020-02-20,2020-02-20 11:43:37,2019,Q4,3672000000.0,2111000000.0,1561000000.0,0.4251089325,109000000,894000000.0,283000000.0,894000000.0,-27000000.0,1137000000.0,3250000000.0,9000000.0,33000000.0,134000000.0,535000000.0,0.1456971678,401000000.0,0.109204793,-34000000.0,398000000.0,0.1083877996,95000000.0,292000000.0,0.0795206972,1.23,1.22,237000000,238600000,https://www.sec.gov/Archives/edgar/data/79879/000007987920000008/0000079879-20-000008-index.htm,https://www.sec.gov/Archives/edgar/data/79879/000007987920000008/ppg201910k.htm,15.49367088607595,1.2320675105485233,3.413502109704641,2.6160337552742616,5.371308016877637,22.79746835443038,-5.0548523206751055,22.29535864978903,22.17299578059072,31637130000.000004,35643130000.0,27.086583904109588,8.615776143790852,39.10646477132263,51.02762903225807,5.987344814534444,5.987344814534444,9.706734749455338,66.62267289719627,44.05825710754017,57.48891935483871,0.0092296614768785,0.0195972264235093,0.9882664647993944,0.3647412167353496,7.48785046728972,1.4102857142857144,12.151515151515152,2.66996699669967,0.0038246199955558,0.4143835616438356,0.2434640522875817,0.0296840958605664,0.4610602779911992,0.2336217552533992,0.0514705882352941,1.4104477611940298,0.002995642701525,24.86083683506493,0.0215200845621027,0.03784344219803,-19.91139240506329,1795000000.0,-1198000000.0,-2744000000.0,12161000000.0,2892000000.0,3200500000.0,1785000000.0,67.54901960784314,124.06442444339176,72.90383704405495,1.3323657474600872,0.7254295532646048,1.234502923976608,0.0552611657834973,0.7974683544303798,2020-01-16,1.34,bmo,3756091603.0,2025-04-25,2019-12-31,-0.0223880597014925,126.69984375,1207076.71875
2019-09-30,PPG,USD,79879,2019-10-18,2019-10-18 12:07:39,2019,Q3,3826000000.0,2181000000.0,1645000000.0,0.4299529535,107000000,887000000.0,0.0,887000000.0,-12000000.0,1127000000.0,3322000000.0,10000000.0,33000000.0,133000000.0,598000000.0,0.1562990068,465000000.0,0.1215368531,-37000000.0,481000000.0,0.1257187663,109000000.0,367000000.0,0.0959226346,1.55,1.54,237100000,238500000,https://www.sec.gov/Archives/edgar/data/79879/000007987919000043/0000079879-19-000043-index.htm,https://www.sec.gov/Archives/edgar/data/79879/000007987919000043/ppgq3201910q.htm,16.136651202024463,1.5478700970054828,3.3277098270771828,2.9439055250948964,6.2842682412484185,22.58540700126529,-4.483340362716153,22.12990299451708,0.8224377899620413,28098721000.0,26828721000.0,19.14081811989101,7.344150810245687,35.613081115335866,40.256047277936965,5.355197446159711,5.355197446159711,7.012211447987454,44.86408193979933,34.00344866920152,38.436563037249286,0.0130610927095222,0.0248409883140232,0.0308747855917667,0.0089681133746678,-2.123745819397993,1.4890782000873743,14.090909090909092,2.120967741935484,0.0042706570167375,0.326975476839237,0.2318348144276006,0.0279665446941975,0.3552922940655447,0.1153358681875792,0.023784631468897,0.6842105263157895,0.0023523261892315,27.76184143089241,0.0248893196502027,0.031512965825176,-33.81695487136229,2239000000.0,-1063000000.0,-5892000000.0,12261000000.0,3180000000.0,3546000000.0,1902500000.0,71.22843700993204,144.05777166437414,76.75378266850069,1.263540290620872,0.6247493554855342,1.1725806451612903,0.0699447303220888,0.3838043019822859,2019-10-17,1.61,bmo,3688538922.0,2025-04-25,2019-09-30,0.0372670807453415,115.146875,1131315.34375
2019-06-30,PPG,USD,79879,2019-07-19,2019-07-19 10:44:51,2019,Q2,4024000000.0,2288000000.0,1736000000.0,0.4314115308,111000000,934000000.0,0.0,934000000.0,2000000.0,1171000000.0,3633000000.0,7000000.0,35000000.0,126000000.0,662000000.0,0.1645129225,536000000.0,0.1332007952,-202000000.0,363000000.0,0.0902087475,86000000.0,272000000.0,0.0675944334,1.15,1.14,236900000,238300000,https://www.sec.gov/Archives/edgar/data/79879/000007987919000032/0000079879-19-000032-index.htm,https://www.sec.gov/Archives/edgar/data/79879/000007987919000032/ppgq2201910q.htm,16.986070071760235,1.1481637821865769,2.313212325875897,1.9501899535669056,4.288729421696918,21.895314478682987,-5.090755593077248,21.439425918108903,0.8526804558885606,28103447000.0,27307447000.0,25.83037408088235,6.983958001988071,51.28366240875912,60.82997186147186,5.533263831462886,5.533263831462886,6.786144880715706,41.24991993957704,49.83110766423358,59.107028138528136,0.0096785280467552,0.0164392645500034,0.0328804882850954,0.0093010303536619,-1.202416918429003,1.4252018699532512,15.314285714285717,1.978339350180505,0.0040564419019488,0.4191176470588235,0.2321073558648111,0.0275844930417495,0.3560568086883876,0.156934306569343,0.0213717693836978,0.6825396825396826,0.0024850894632206,23.53421717151452,0.0287289298380756,0.023525341636395,-34.953566905867454,2001000000.0,-1206000000.0,-6061000000.0,12054000000.0,3264500000.0,3580000000.0,1955000000.0,74.52286282306163,141.64772727272725,76.50786713286713,1.2076830732292918,0.6353790613718412,1.176349614395887,0.05355384918291,0.3630223723089911,2019-07-18,1.83,bmo,3980497297.0,2025-04-25,2019-06-30,0.0109289617486338,114.0026984126984,1279341.5238095238
2019-03-31,PPG,USD,79879,2019-04-19,2019-04-19 09:18:58,2019,Q1,3624000000.0,2073000000.0,1551000000.0,0.4279801325,105000000,889000000.0,0.0,889000000.0,2000000.0,1112000000.0,3180000000.0,6000000.0,31000000.0,118000000.0,537000000.0,0.1481788079,419000000.0,0.1156181015,-20000000.0,419000000.0,0.1156181015,102000000.0,312000000.0,0.0860927152,1.32,1.31,236700000,238000000,https://www.sec.gov/Archives/edgar/data/79879/000007987919000017/0000079879-19-000017-index.htm,https://www.sec.gov/Archives/edgar/data/79879/000007987919000017/ppgq1201910q.htm,15.310519645120406,1.3181242078580482,-0.2788339670468948,-0.4773975496408956,3.5445711871567385,21.1660329531052,-4.702154626108999,20.71820870299958,0.8407266582171525,27035874000.0,26419874000.0,21.663360576923075,7.460230132450331,-409.63445454545456,-239.2555221238938,5.5130248776508965,5.5130248776508965,7.290252207505519,49.19902048417132,-400.3011212121212,-233.8041946902655,0.0115402224466647,-0.0041796318476702,0.0342577487765089,0.0096712912325139,-1.1471135940409682,1.3969049694856146,13.516129032258064,-0.2082018927444795,0.0041796318476702,0.3621794871794871,0.2453090507726269,0.0289735099337748,0.3524840250993034,-0.7121212121212122,0.0129690949227373,0.3983050847457627,0.0024834437086092,24.788230670719088,0.0230177171071739,0.0277382645803698,-34.39691592733418,1821000000.0,-1113000000.0,-5952000000.0,11536000000.0,3021000000.0,2812000000.0,1874000000.0,79.39569536423842,154.5151953690304,85.3111432706223,1.133562715045355,0.5824669851081764,1.0549618320610687,0.0636215334420881,0.1985635825940008,2019-04-18,1.21,bmo,3177565217.0,2025-04-25,2019-03-31,0.140495867768595,107.14508196721312,1297734.8688524591
2018-12-31,PPG,USD,79879,2019-02-21,2019-02-21 11:53:01,2018,Q4,3645000000.0,2188000000.0,1457000000.0,0.3997256516,105000000,855000000.0,280000000.0,855000000.0,-8000000.0,1087000000.0,3278000000.0,5000000.0,30000000.0,127000000.0,429000000.0,0.1176954733,302000000.0,0.0828532236,-132000000.0,342000000.0,0.0938271605,83000000.0,258000000.0,0.070781893,1.08,1.08,238500000,239800000,https://www.sec.gov/Archives/edgar/data/79879/000007987919000008/0000079879-19-000008-index.htm,https://www.sec.gov/Archives/edgar/data/79879/000007987919000008/ppg201810k.htm,15.283018867924527,1.0817610062893082,3.3542976939203357,2.5786163522012577,4.037735849056604,19.840670859538783,-5.4926624737945495,19.41299790356394,21.15723270440252,24381855000.0,28495855000.0,23.625828488372093,6.689123456790123,30.47731875,39.64529268292683,5.26605939524838,5.26605939524838,7.817792866941015,66.42390442890444,35.61981875,46.33472357723577,0.0105816395019985,0.0252236755570894,1.0833693304535637,0.3132063690290352,9.58974358974359,1.365948670944088,10.066666666666666,3.088803088803089,0.0047166222586427,0.4457364341085271,0.2345679012345679,0.0288065843621399,0.3772713081486106,0.23125,0.0507544581618655,1.4566929133858268,0.0043895747599451,21.737181126198493,0.0185865584997302,0.0258698485911962,-30.58595387840671,1597000000.0,-1310000000.0,-5322000000.0,10444000000.0,3031000000.0,2900500000.0,1872500000.0,70.24691358024691,84.94058500914076,73.34095063985374,1.281195079086116,1.0595641646489105,1.2271452607964106,0.0557235421166306,0.7756813417190775,2019-01-17,1.1,bmo,3486521739.0,2025-04-25,2018-12-31,0.0454545454545452,103.5820634920635,2078107.492063492
2018-09-30,PPG,USD,79879,2018-10-19,2018-10-19 16:32:19,2018,Q3,3817000000.0,2253000000.0,1564000000.0,0.4097458737,110000000,867000000.0,0.0,867000000.0,-1000000.0,1099000000.0,3341000000.0,6000000.0,31000000.0,122000000.0,562000000.0,0.1472360493,440000000.0,0.1152737752,-136000000.0,451000000.0,0.1181556196,79000000.0,378000000.0,0.0990306523,1.56,1.55,242200000,243600000,https://www.sec.gov/Archives/edgar/data/79879/000007987918000058/0000079879-18-000058-index.htm,https://www.sec.gov/Archives/edgar/data/79879/000007987918000058/ppgq3201810q.htm,15.759702725020643,1.560693641618497,2.213047068538398,1.7671345995045418,4.789430222956234,20.96614368290669,-3.571428571428572,20.56151940545004,20.9289843104872,26581450000.0,30516450000.0,17.580324074074074,6.963963845952319,49.59225746268657,62.106191588785045,5.337640562248996,5.337640562248996,7.994878176578465,54.29973309608541,56.93367537313433,71.30011682242991,0.0142204432038131,0.0161014542096085,1.0116465863453816,0.3013518363440603,7.001779359430605,1.7139588100686498,14.193548387096774,1.4408602150537635,0.0043639455334453,0.3068783068783068,0.2271417343463453,0.0288184438040345,0.3554851058739083,0.2014925373134328,0.0282944720985066,0.8852459016393442,0.0007859575582918,26.870620265585192,0.0283448007863396,0.0350812064965197,-29.25784475639967,2808000000.0,-865000000.0,-4899000000.0,11489000000.0,3327500000.0,3778000000.0,1959000000.0,75.85276395074666,149.2410119840213,78.37549933422105,1.1865091700341934,0.603051391862955,1.1483180428134556,0.0759036144578313,0.4459124690338563,2018-10-18,1.45,bmo,3817000000.0,2025-04-25,2018-09-30,0.0,108.99777777777776,1405287.365079365
2018-06-30,PPG,USD,79879,2018-07-20,2018-07-20 08:26:44,2018,Q2,4131000000.0,2379000000.0,1752000000.0,0.4241103849,114000000,945000000.0,0.0,945000000.0,18000000.0,1184000000.0,3628000000.0,7000000.0,31000000.0,125000000.0,687000000.0,0.1663035585,562000000.0,0.1360445413,-89000000.0,479000000.0,0.1159525539,104000000.0,371000000.0,0.089808763,1.51,1.51,244900000,246400000,https://www.sec.gov/Archives/edgar/data/79879/000007987918000045/0000079879-18-000045-index.htm,https://www.sec.gov/Archives/edgar/data/79879/000007987918000045/ppgq2201810q.htm,16.868109432421395,1.5149040424663127,1.465904450796243,1.2903225806451613,4.422213148223765,31.43732135565537,7.321355655369539,19.94283380971825,20.82890975908534,25403477000.0,29453477000.0,17.118245956873317,6.149473977245219,70.76177437325906,80.39075,5.201367117117117,5.201367117117117,7.1298661341079645,42.872601164483264,82.04311142061282,93.20720569620254,0.0146043000334166,0.0124392420769802,1.038083538083538,0.3018935334047874,5.895196506550218,1.6997776130467013,18.12903225806452,0.9573333333333334,0.0043301159128728,0.2964959568733153,0.2287581699346405,0.027596223674655,0.3516732166249851,0.1197771587743732,0.0104091019123698,0.344,0.0021786492374727,26.07217463164438,0.0344460285894682,0.0340742101396032,-18.19314005716619,2832000000.0,1793000000.0,-2216000000.0,11476000000.0,3390500000.0,3820500000.0,1958500000.0,74.90196078431373,144.51450189155108,73.99747793190417,1.2015706806282722,0.6227748691099476,1.2162576687116564,0.0759623259623259,0.175581870151082,2018-07-19,1.88,bmo,4087515789.0,2025-04-25,2018-06-30,0.0106382978723404,105.9375,1912463.4375
2018-03-31,PPG,USD,79879,2018-06-28,2018-06-28 07:18:09,2018,Q1,3786000000.0,2182000000.0,1604000000.0,0.4236661384,112000000,903000000.0,0.0,903000000.0,-17000000.0,1136000000.0,3339000000.0,5000000.0,26000000.0,121000000.0,2628000000.0,0.6941362916,414000000.0,0.1093502377,-38000000.0,462000000.0,0.1220285261,109000000.0,334000000.0,0.088219757,1.41,1.4,249800000,251400000,https://www.sec.gov/Archives/edgar/data/79879/000007987918000040/0000079879-18-000040-index.htm,https://www.sec.gov/Archives/edgar/data/79879/000007987918000040/ppgq1201810q.htm,15.156124899919936,1.3370696557245796,-0.912730184147318,-1.2129703763010409,5.620496397117694,21.885508406725386,-3.0624499599679744,21.401120896717373,20.99279423538831,27877680000.0,31749680000.0,20.866526946107783,7.363359746434232,-122.27052631578948,-92.00554455445544,5.214680134680135,5.214680134680135,8.38607501320655,12.08130898021309,-139.25298245614036,-104.78442244224422,0.0119809108935894,-0.0108689101819089,0.9760568649457538,0.3552076242341729,1.4733637747336377,1.7664015904572563,15.923076923076923,-0.6826347305389222,0.0040175509583293,0.3353293413173652,0.2385103011093502,0.0295826730058108,0.4242341729067392,-0.3289473684210526,0.019809825673534,0.6097560975609756,0.002377179080824,25.37385978450293,0.0233605106952717,0.0394892409553085,-17.3388710968775,3084000000.0,-765000000.0,-2115000000.0,12178000000.0,3123000000.0,3021000000.0,1845500000.0,79.46909667194929,157.60311640696608,80.88450962419799,1.1325157044570744,0.5710546977231091,1.112697603263641,0.0624766180321735,0.300240192153723,2018-04-19,1.39,bmo,3781000000.0,2025-04-25,2018-03-31,0.0,115.49540983606558,1564459.1311475409
2017-12-31,PPG,USD,79879,2018-02-15,2018-02-15 16:30:58,2017,Q4,3682000000.0,2117000000.0,1565000000.0,0.4250407387,116000000,950000000.0,313000000.0,950000000.0,16000000.0,1186000000.0,3285000000.0,7000000.0,27000000.0,120000000.0,500000000.0,0.1357957632,380000000.0,0.10320478,-4000000.0,376000000.0,0.1021184139,187000000.0,151000000.0,0.0410103205,0.6,0.59,251666667,255932203,https://www.sec.gov/Archives/edgar/data/79879/000007987918000010/0000079879-18-000010-index.htm,https://www.sec.gov/Archives/edgar/data/79879/000007987918000010/ppg201710k.htm,14.630463556780844,0.599999999205298,2.1298013216823826,1.5218543026200606,5.924503303411254,22.54172182444805,-1.2476821175527388,22.08476818266918,16.58145693168019,29399700038.94,32109700038.94,48.6750000644702,7.984709407642585,54.85018663981342,76.76161890062663,5.289618574836272,5.289618574836272,8.72072244403585,64.21940007788,59.90615678906716,83.83733691629243,0.0051361068242192,0.0130273437991787,0.7459517812162648,0.3024290612006711,5.42,1.6568426447975395,14.074074074074074,3.526315789473684,0.0038435766300449,0.7483443708609272,0.2580119500271591,0.0315046170559478,0.43672040265519,0.2854477611940298,0.0415535035306898,1.275,0.0024443237370994,17.26685756213738,0.0151163847972358,0.0195545195545195,-13.918211902095084,2563000000.0,-314000000.0,-1571000000.0,11374000000.0,3029000000.0,3009000000.0,1767500000.0,70.95871808799565,94.42135096835143,73.547472838923,1.268343093351705,0.9531742458352094,1.223699421965318,0.0271680460597337,0.6079470190623218,2018-01-18,1.18,bmo,3651058823.0,2025-04-25,2017-12-31,0.0084745762711864,115.34793650793652,1226744.1904761903
2017-09-30,PPG,USD,79879,2017-10-20,2017-10-20 14:19:46,2017,Q3,3776000000.0,2100000000.0,1676000000.0,0.4438559322,114000000,905000000.0,0.0,905000000.0,-2000000.0,1136000000.0,3231000000.0,5000000.0,27000000.0,117000000.0,646000000.0,0.1710805085,529000000.0,0.140095339,-26000000.0,521000000.0,0.1379766949,123000000.0,610000000.0,0.1615466102,2.38,2.36,256400000,258200000,https://www.sec.gov/Archives/edgar/data/79879/000007987917000088/0000079879-17-000088-index.htm,https://www.sec.gov/Archives/edgar/data/79879/000007987917000088/ppgq3201710q.htm,14.726989079563182,2.3790951638065523,2.285491419656786,2.004680187207488,9.0795631825273,34.742589703588145,11.419656786271451,23.018720748829956,18.45553822152886,27860424000.0,30278424000.0,11.418206557377047,7.378290254237288,47.54338566552901,54.20315953307393,4.720505591324975,4.720505591324975,8.018650423728813,46.870625386996906,51.66966552901024,58.907439688715954,0.0218948570201228,0.0184491090300707,0.7971873941036937,0.2671019017882486,3.7430340557275534,1.653962754439151,19.59259259259259,1.4723618090452262,0.0041636121546463,0.1901639344262295,0.2396716101694915,0.0301906779661016,0.3394833948339483,0.1228668941979522,0.0190677966101694,0.6153846153846154,0.0023834745762711,35.10247658267839,0.0296856919397781,0.0524280189084658,-12.130460218408736,3020000000.0,2928000000.0,-1069000000.0,11730000000.0,3173000000.0,3674500000.0,1785500000.0,75.19862288135594,162.72857142857143,77.35714285714286,1.1968304278922346,0.5530682117461153,1.1634349030470914,0.1033547949847509,0.2808112324492979,2017-10-19,1.52,bmo,3776000000.0,2025-04-25,2017-09-30,0.0,106.48952380952382,1366894.507936508
2017-06-30,PPG,USD,79879,2017-07-21,2017-07-21 16:35:56,2017,Q2,3806000000.0,2082000000.0,1724000000.0,0.4529689963,113000000,865000000.0,0.0,865000000.0,61000000.0,1091000000.0,3123000000.0,4000000.0,26000000.0,113000000.0,725000000.0,0.190488702,612000000.0,0.1607987388,47000000.0,671000000.0,0.176300578,162000000.0,496000000.0,0.1303205465,1.93,1.92,257100000,259000000,https://www.sec.gov/Archives/edgar/data/79879/000007987917000078/0000079879-17-000078-index.htm,https://www.sec.gov/Archives/edgar/data/79879/000007987917000078/ppgq2201710q.htm,14.803578374173473,1.929210423959549,1.6997277323998443,1.4235705950991833,6.289381563593932,33.20886814469078,10.015558148580318,21.89809412679891,18.059120964605217,28270716000.0,31318716000.0,14.249352822580644,7.427933788754598,64.69271395881007,77.24239344262296,5.021441563055062,5.021441563055062,8.228774566473989,43.19822896551724,71.66754233409611,85.57026229508196,0.0175446564565255,0.0129462585949361,0.8200710479573712,0.2719561760028273,4.204137931034483,1.6088718757036704,23.53846153846154,0.8687872763419483,0.0036079737067854,0.2056451612903226,0.2272727272727272,0.0296899632159747,0.3512399128232314,0.1624713958810068,0.0186547556489753,0.6513761467889908,0.002101944298476,30.830759116846703,0.0352903391354145,0.0450335936081351,-13.791326332166472,2704000000.0,2575000000.0,-1294000000.0,11377000000.0,3124000000.0,3518500000.0,1746500000.0,75.45717288491855,153.54466858789627,76.34005763688761,1.1927295518646193,0.5861486486486487,1.1789354473386184,0.0880994671403197,0.2761571373006612,2017-07-20,1.82,bmo,3783213114.0,2025-04-25,2017-06-30,0.0054945054945054,108.19412698412698,1249939.015873016
2017-03-31,PPG,USD,79879,2017-04-24,2017-04-24 13:43:19,2017,Q1,3569000000.0,1969000000.0,1600000000.0,0.4483048473,110000000,918000000.0,0.0,918000000.0,10000000.0,1142000000.0,3019000000.0,4000000.0,25000000.0,114000000.0,588000000.0,0.1647520314,465000000.0,0.1302885962,-9000000.0,448000000.0,0.1255253572,109000000.0,337000000.0,0.0944242085,1.31,1.3,257251908,259230769,https://www.sec.gov/Archives/edgar/data/79879/000007987917000035/0000079879-17-000035-index.htm,https://www.sec.gov/Archives/edgar/data/79879/000007987917000035/ppgq1201710q.htm,13.87356085226781,1.310000002021365,0.0349851632587308,-0.2137982199144661,5.399376862930789,31.34670627982281,8.80071217975184,20.1825519599256,17.282670649813024,27032030492.64,30104030492.64,20.05343508356083,7.574118938817596,3003.558943626667,-491.4914635025455,5.2064773676117095,5.2064773676117095,8.434864245626226,51.19733076979592,3344.89227696,-547.3460089570909,0.0124666920633932,-0.0020346233337882,0.851502311248074,0.273678345920515,5.224489795918367,1.555347531008659,18.6,0.0265486725663716,0.0038102946069124,0.3056379821958457,0.2572149061361726,0.030820958251611,0.3590441995790516,7.111111111111111,0.0179321938918464,0.5614035087719298,0.0025217147660409,24.3901767098298,0.0281829266548429,0.0325478076105852,-13.77929527348734,2373000000.0,2264000000.0,-1444000000.0,10979000000.0,2874500000.0,2649000000.0,1636500000.0,77.08882039787056,159.29405789740986,78.93854748603353,1.1674844618907425,0.5649928263988522,1.1401273885350318,0.0649075500770416,0.2487833831731969,2017-04-20,1.32,bmo,3408533333.0,2025-04-25,2017-03-31,0.0227272727272727,101.25129032258064,1851028.483870968
2016-12-31,PPG,USD,79879,2017-02-16,2017-02-16 16:25:25,2016,Q4,3497000000.0,1968000000.0,1529000000.0,0.4372319131,115000000,986000000.0,322000000.0,986000000.0,-70000000.0,1181000000.0,3263000000.0,6000000.0,29000000.0,113000000.0,473000000.0,0.1352587933,364000000.0,0.1040892193,-284000000.0,140000000.0,0.0400343151,59000000.0,340000000.0,0.0972261939,1.31,1.3,262000000,263700000,https://www.sec.gov/Archives/edgar/data/79879/000007987917000009/0000079879-17-000009-index.htm,https://www.sec.gov/Archives/edgar/data/79879/000007987917000009/ppg201610k.htm,13.34732824427481,1.297709923664122,2.1908396946564888,1.6412213740458017,7.110687022900764,18.751908396946565,-2.450381679389313,18.419847328244277,16.96564885496183,24827120000.0,27423120000.0,18.25523529411765,7.099548184157849,43.25282229965157,57.73748837209303,5.144450891007046,5.144450891007046,7.841898770374606,57.9769978858351,47.77547038327526,63.77469767441861,0.0136947016005078,0.0173197696712304,0.9150435142975548,0.3401109057301293,5.488372093023256,1.4990662931839402,12.551724137931034,7.08641975308642,0.0042292460825097,0.3088235294117647,0.28195596225336,0.0328853302830998,0.427834257547751,0.2508710801393728,0.0411781527023162,1.2743362831858407,0.0022876751501286,23.19119272655925,0.0174280039721946,0.045766590389016,-13.0381679389313,2138000000.0,-642000000.0,-1649000000.0,10452000000.0,2827000000.0,2659000000.0,1611000000.0,69.28224192164713,82.91158536585365,70.70121951219512,1.299034175334324,1.0854936569222284,1.2729624838292368,0.0704517198508081,0.549618320610687,2017-01-19,1.18,bmo,3388285714.0,2025-04-25,2016-12-31,0.0084745762711864,95.44396825396828,1949137.984126984
2016-09-30,PPG,USD,79879,2016-10-21,2016-10-21 16:23:16,2016,Q3,3789000000.0,2081000000.0,1708000000.0,0.4507785695,117000000,1984000000.0,0.0,1984000000.0,9000000.0,2103000000.0,4058000000.0,6000000.0,34000000.0,119000000.0,-257000000.0,-0.0678279229,549000000.0,0.1448931116,-217000000.0,-413000000.0,-0.1089997361,-217000000.0,-184000000.0,-0.0485616258,-0.69,-0.69,266300000,266300000,https://www.sec.gov/Archives/edgar/data/79879/000007987916000118/0000079879-16-000118-index.htm,https://www.sec.gov/Archives/edgar/data/79879/000007987916000118/ppgq3201610q.htm,14.228313931656029,-0.6909500563274502,2.914006759294029,2.576042057829516,3.6612842658655658,31.08524220803605,9.402929027412693,18.892226811866315,16.665414945550133,27524768000.0,30999768000.0,-37.39778260869566,7.26438849300607,35.4700618556701,40.12356851311954,5.471033194195985,5.471033194195985,8.181517022961204,-120.6216653696498,39.94815463917526,45.189166180758015,-0.0066848883158615,0.0249230075254403,0.8753726893261777,0.267070952092177,-13.521400778210117,1.4387892376681617,16.147058823529413,-3.448888888888889,0.0038510769645724,-0.5760869565217391,0.5236210081815783,0.0308788598574821,0.3501516070345664,0.1159793814432989,0.0237529691211401,0.8411214953271028,0.0029031406703615,,0.0205442653273423,-0.017170586039567,-15.687194892977844,1957000000.0,2504000000.0,-1795000000.0,10594000000.0,3035000000.0,3509000000.0,1739500000.0,70.3562945368171,151.5857760691975,72.48438250840941,1.2792032410533425,0.5937232524964337,1.2416467780429594,-0.0365732458755714,0.3379647014645137,2016-10-20,1.57,bmo,3660000000.0,2025-04-25,2016-09-30,-0.0063694267515923,104.92359375,1394064.515625
2016-06-30,PPG,USD,79879,2016-07-22,2016-07-22 16:17:07,2016,Q2,4064000000.0,2190000000.0,1874000000.0,0.4611220472,119000000,956000000.0,119000000.0,1075000000.0,14000000.0,1196000000.0,3128000000.0,7000000.0,31000000.0,121000000.0,724000000.0,0.1781496063,621000000.0,0.1528051181,-10000000.0,673000000.0,0.1656003937,297000000.0,370000000.0,0.0910433071,1.38,1.37,267200000,269100000,https://www.sec.gov/Archives/edgar/data/79879/000007987916000095/0000079879-16-000095-index.htm,https://www.sec.gov/Archives/edgar/data/79879/000007987916000095/ppgq2201610q.htm,15.209580838323353,1.3847305389221556,-0.3143712574850299,-0.6549401197604791,6.24625748502994,31.61302395209581,10.374251497005988,20.00748502994012,19.247754491017965,27828880000.0,31335880000.0,18.8032972972973,6.847657480314961,-331.29619047619053,-159.02217142857145,5.205551814440703,5.205551814440703,7.710600393700787,43.28160220994475,-373.0461904761905,-179.06217142857142,0.0132955404601263,-0.0062884312987083,0.9562289562289562,0.2963821892393321,4.843922651933702,1.6244571428571428,20.032258064516128,-0.2234042553191489,0.0038449265654959,0.2891891891891892,0.2352362204724409,0.0292814960629921,0.329023654916512,-1.0833333333333333,0.0223917322834645,0.7520661157024794,0.0039370078740157,24.967217493739337,0.0255823620451602,0.0319709669057288,-14.593937125748504,2732000000.0,2772000000.0,-1694000000.0,11357000000.0,3107000000.0,3531500000.0,1833000000.0,68.82874015748033,144.36986301369865,74.0958904109589,1.3075933075933075,0.623398804440649,1.2146422628951747,0.0692106247661803,0.3405688622754491,2016-07-21,1.84,bmo,3782000000.0,2025-04-25,2016-06-30,0.0054347826086956,109.203125,1427437.15625
2016-03-31,PPG,USD,79879,2016-04-21,2016-04-21 16:21:02,2016,Q1,3672000000.0,2013000000.0,1659000000.0,0.4517973856,118000000,919000000.0,0.0,919000000.0,-6000000.0,1158000000.0,2943000000.0,7000000.0,31000000.0,121000000.0,574000000.0,0.1563180828,459000000.0,0.125,-30000000.0,471000000.0,0.1282679739,117000000.0,347000000.0,0.0944989107,1.3,1.29,266923077,268992248,https://www.sec.gov/Archives/edgar/data/79879/000007987916000071/0000079879-16-000071-index.htm,https://www.sec.gov/Archives/edgar/data/79879/000007987916000071/ppgq1201610q.htm,13.75677233032946,1.2999999996253602,0.2210374639132457,-0.0674351584820071,3.858789624248187,19.661095095198533,-2.49135446614082,19.335158495868832,16.090778093345598,29759253854.73,33114253854.73,21.4403846215634,8.104371964795751,504.394133131017,-1653.2918808183333,5.766179781966672,5.766179781966672,9.018042988760891,57.690337726010455,561.258539910678,-1839.6807697072225,0.01166023858306,-0.0006048538746255,0.8261964735516373,0.2462604678024834,5.844947735191638,1.474539069359087,14.806451612903226,0.1666666666666666,0.0032258873313364,0.276657060518732,0.2502723311546841,0.0321350762527233,0.3414958128790066,1.305084745762712,0.0209694989106753,0.6363636363636364,0.0027233115468409,23.78136635774277,0.0269579504352383,0.0304332573232766,-29.13198846422709,2162000000.0,-665000000.0,-5349000000.0,11113000000.0,2947000000.0,2665000000.0,1784000000.0,76.12745098039215,158.71833084947838,83.2935916542474,1.1822279459111398,0.5670422535211268,1.0805152979066022,0.0672350319705483,0.2884726223952528,2016-04-21,1.3,bmo,3384961832.0,2025-04-25,2016-03-31,0.0076923076923076,98.34573770491804,1709315.245901639
2015-12-31,PPG,USD,79879,2016-02-18,2016-02-18 14:48:14,2015,Q4,3696000000.0,2093000000.0,1603000000.0,0.4337121212,125000000,922000000.0,125000000.0,1047000000.0,-43000000.0,1172000000.0,3139000000.0,9000000.0,32000000.0,125000000.0,576000000.0,0.1558441558,437000000.0,0.1182359307,-51000000.0,419000000.0,0.1133658009,100000000.0,314000000.0,0.08495671,1.17,1.16,269200000,271200000,https://www.sec.gov/Archives/edgar/data/79879/000007987916000065/0000079879-16-000065-index.htm,https://www.sec.gov/Archives/edgar/data/79879/000007987916000065/ppg-20151231x10k.htm,13.729569093610698,1.1664190193164934,3.1612184249628528,2.3811292719167905,5.404903417533433,31.307578008915304,9.587667161961368,18.51040118870728,16.184992570579496,26602344000.0,29616344000.0,21.1802101910828,7.197603896103896,31.260098707403053,41.50131669266771,5.338620108368453,5.338620108368453,8.013080086580086,51.41726388888889,34.8018143360752,46.20334477379095,0.0118034711527675,0.0240956210475287,0.8679510335139474,0.2532794565472007,5.232638888888889,1.4229266174554929,13.65625,2.6677115987460813,0.0036087045562601,0.3057324840764331,0.2494588744588744,0.0338203463203463,0.3424104005621926,0.2467685076380728,0.0568181818181818,1.68,0.003517316017316,22.0407552057082,0.0260882974421105,0.0279633092884495,-15.785661218424965,1948000000.0,2581000000.0,-2094000000.0,10812000000.0,2925000000.0,2656500000.0,1773000000.0,67.8896103896104,76.54085045389392,73.31581462016244,1.3256814921090387,1.1758426966292137,1.227565982404692,0.063014248444712,0.7800891530460624,2016-01-21,1.22,bmo,3002390243.0,2025-04-25,2015-12-31,0.0081967213114754,101.01875,1524904.375
2015-09-30,PPG,USD,79879,2015-10-26,2015-10-26 17:09:02,2015,Q3,3872000000.0,2150000000.0,1722000000.0,0.444731405,119000000,890000000.0,119000000.0,1009000000.0,11000000.0,1134000000.0,3150000000.0,10000000.0,31000000.0,125000000.0,737000000.0,0.1903409091,543000000.0,0.1402376033,-10000000.0,581000000.0,0.1500516529,142000000.0,433000000.0,0.1118285124,1.6,1.59,271100000,273100000,https://www.sec.gov/Archives/edgar/data/79879/000007987915000051/0000079879-15-000051-index.htm,https://www.sec.gov/Archives/edgar/data/79879/000007987915000051/ppg930201510q.htm,14.282552563629658,1.597196606418296,2.950940612320177,2.5673183327185543,5.215787532275913,31.55293249723349,9.911471781630397,18.85282183696053,16.905201032829215,23772759000.0,27309759000.0,13.72561143187067,6.139658832644628,29.71594875,34.15626293103448,4.651293093328116,4.651293093328116,7.053140237603306,37.0553039348711,34.13719875,39.23815948275862,0.018214124830862,0.0292772075803233,0.8906280571316768,0.2590190053488107,4.799185888738127,1.5287211740041928,17.516129032258064,1.8223234624145783,0.0041223654351604,0.2263279445727482,0.2298553719008264,0.0307334710743801,0.3338454535108683,0.13,0.0268595041322314,0.832,0.0005165289256198,26.02906872780022,0.0313053132501228,0.0369864183821645,-16.18959793434157,2522000000.0,2687000000.0,-1728000000.0,11308000000.0,3174000000.0,3497000000.0,1851000000.0,71.17252066115702,147.89302325581397,77.06511627906977,1.2645329849771392,0.6085479762241721,1.1678435632808255,0.0847192330268049,0.383622279601623,2015-10-15,1.6,bmo,3701863354.0,2025-04-25,2015-09-30,0.00625,101.75578125,2189322.203125
2015-06-30,PPG,USD,79879,2015-07-27,2015-07-27 16:23:25,2015,Q2,4100000000.0,2283000000.0,1817000000.0,0.4431707317,123000000,954000000.0,123000000.0,1077000000.0,1000000.0,1202000000.0,3394000000.0,10000000.0,34000000.0,125000000.0,579000000.0,0.1412195122,454000000.0,0.1107317073,-163000000.0,452000000.0,0.1102439024,110000000.0,337000000.0,0.082195122,1.24,1.23,272500000,274700000,https://www.sec.gov/Archives/edgar/data/79879/000007987915000043/0000079879-15-000043-index.htm,https://www.sec.gov/Archives/edgar/data/79879/000007987915000043/ppg630201510q.htm,15.045871559633028,1.236697247706422,2.256880733944954,1.926605504587156,4.337614678899082,31.372477064220185,9.790825688073394,18.976146788990825,16.693577981651377,31261200000.0,35069200000.0,23.19080118694362,7.624682926829268,50.831219512195126,59.54514285714286,6.045484432411526,6.045484432411526,8.553463414634146,60.568566493955096,57.02308943089431,66.7984761904762,0.0107801363991145,0.0167939810371962,0.8731386578998259,0.2565924073653103,6.576856649395509,1.5282901554404145,13.352941176470589,1.7982456140350878,0.0031348764602766,0.2908011869436201,0.2326829268292683,0.03,0.3342236872016367,0.1463414634146341,0.0219512195121951,0.72,0.0060975609756097,22.97878024146202,0.0262946474537877,0.0287665386256935,-16.40366972477064,2549000000.0,2668000000.0,-1673000000.0,11347000000.0,3123500000.0,3327000000.0,1871000000.0,72.13170731707318,136.4388961892247,73.36399474375821,1.2477175897748023,0.6596359433689685,1.2267598065556151,0.0651711467801199,0.3302752293577982,2015-07-16,1.62,bmo,3758251497.0,2025-04-25,2015-06-30,0.030864197530864,114.2088888888889,1432944.6825396826
2015-03-31,PPG,USD,79879,2015-04-27,2015-04-27 17:26:15,2015,Q1,3662000000.0,2065000000.0,1597000000.0,0.4361004915,119000000,914000000.0,119000000.0,1033000000.0,4000000.0,1153000000.0,3214000000.0,11000000.0,29000000.0,120000000.0,564000000.0,0.1540141999,444000000.0,0.1212452212,-14000000.0,430000000.0,0.1174221737,104000000.0,322000000.0,0.0879300928,1.18,1.17,273200000,275600000,https://www.sec.gov/Archives/edgar/data/79879/000007987915000026/0000079879-15-000026-index.htm,https://www.sec.gov/Archives/edgar/data/79879/000007987915000026/ppg331201510q.htm,13.404099560761347,1.178623718887262,-1.5702781844802345,-1.8338213762811129,4.282576866764275,31.37628111273792,10.080527086383604,18.587115666178622,17.104685212298683,30808764000.0,34717764000.0,23.91984782608695,8.413097760786455,-71.81530069930069,-61.49453892215569,6.067105947223316,6.067105947223316,9.480547241944294,61.55631914893617,-80.92718881118881,-69.29693413173652,0.0104515715073801,-0.0162616065999921,0.91453328081922,0.267388300322432,6.930851063829787,1.4841818562748796,15.310344827586206,-1.3159509202453987,0.0029537049912161,0.2826086956521739,0.2495903877662479,0.0324959038776624,0.334983878397052,-0.1678321678321678,0.0196613872200983,0.6,0.0040961223375204,22.201629360743564,0.0254701841319894,0.0278787878787878,-16.342423133235723,2311000000.0,2754000000.0,-1712000000.0,11094000000.0,2888000000.0,2525500000.0,1853000000.0,72.77170944838886,139.16222760290557,81.98062953995158,1.236744343127322,0.6467272157845286,1.097820308346624,0.063410791650256,0.2635431918008785,2015-04-16,1.17,bmo,3600453781.0,2025-04-25,2015-03-31,0.0170940170940171,114.57786885245902,1443296.426229508
2014-12-31,PPG,USD,79879,2015-02-19,2015-02-19 11:42:21,2014,Q4,3707000000.0,2165000000.0,1542000000.0,0.4159697869,126000000,932000000.0,126000000.0,1058000000.0,-169000000.0,1181000000.0,3653000000.0,12000000.0,45000000.0,123000000.0,484000000.0,0.1305637982,361000000.0,0.0973833288,-390000000.0,21000000.0,0.0056649582,-71000000.0,83000000.0,0.0223900728,0.31,0.3,274600000,277600000,https://www.sec.gov/Archives/edgar/data/79879/000007987915000009/0000079879-15-000009-index.htm,https://www.sec.gov/Archives/edgar/data/79879/000007987915000009/ppg-20141231x10k.htm,13.499635833940276,0.3022578295702841,1.788055353241078,0.9541150764748726,4.308084486525856,19.173343044428258,-3.448652585579024,18.86380189366351,14.821558630735616,31738268000.0,35077268000.0,95.59719277108432,8.561712435932021,64.64005702647658,121.13842748091604,6.127078764478765,6.127078764478765,9.462440787698949,72.47369421487603,71.44046435845213,133.88270229007634,0.0026151395532988,0.0082550188308952,0.777027027027027,0.2944403803950256,6.898760330578512,1.410203661797984,8.022222222222222,5.336956521739131,0.0028987089024517,1.108433734939759,0.2514162395468033,0.0339897491232802,0.4544257498171177,0.4663951120162933,0.0617750202319935,1.8617886178861789,0.0053951982735365,11.326471908807584,0.1197398402122811,0.0111289890050952,-15.288601602330663,1994000000.0,-947000000.0,-1550000000.0,11298000000.0,2891500000.0,2760500000.0,1865000000.0,68.34367413002428,77.2378752886836,75.86605080831409,1.316873889875666,1.165231431646932,1.1863013698630136,0.016023166023166,0.8339402767662054,2015-01-15,0.99,bmo,2930773584.0,2025-04-25,2014-12-31,0.0707070707070707,103.710625,2025865.0
2014-09-30,PPG,USD,79879,2014-10-24,2014-10-24 13:36:49,2014,Q3,3935000000.0,2229000000.0,1706000000.0,0.433545108,120000000,941000000.0,120000000.0,1061000000.0,7000000.0,1180000000.0,3402000000.0,13000000.0,47000000.0,119000000.0,645000000.0,0.1639135959,526000000.0,0.1336721728,-27000000.0,499000000.0,0.1268106734,116000000.0,371000000.0,0.0942820839,1.35,1.33,276400000,279400000,https://www.sec.gov/Archives/edgar/data/79879/000007987914000064/0000079879-14-000064-index.htm,https://www.sec.gov/Archives/edgar/data/79879/000007987914000064/ppg930201410q.htm,14.236613603473227,1.3422575976845152,2.301013024602026,1.845151953690304,10.991316931982634,33.41895803183792,18.324891461649784,22.145441389290884,12.282923299565846,27189468000.0,28069468000.0,18.32174393530997,6.909648792884371,42.75073584905661,53.31268235294117,4.441997712792028,4.441997712792028,7.133282846251588,43.51855503875969,44.13438364779874,55.038172549019606,0.0136449893024755,0.0187572629225404,0.5469694494363666,0.1959384327266342,1.3643410852713178,1.8174019607843137,11.191489361702128,1.6605744125326372,0.0033836631154386,0.2479784366576819,0.239135959339263,0.0304955527318932,0.2441622285948382,0.1981132075471698,0.0320203303684879,1.0588235294117647,0.0038119440914866,25.86136030015027,0.0320797335632727,0.0287262872628726,-5.909913169319826,4002000000.0,5065000000.0,1048000000.0,10894000000.0,3076000000.0,3658500000.0,1934500000.0,67.88310038119441,147.90040376850604,76.9179004037685,1.3258086253369272,0.6085176085176085,1.1700787401574804,0.0606110112726678,0.4558610709117221,2014-10-16,1.38,bmo,3851276595.0,2025-04-25,2014-09-30,0.0217391304347826,101.87921875,1059013.4375
2014-06-30,PPG,USD,79879,2014-07-23,2014-07-23 16:17:07,2014,Q2,4082000000.0,2306000000.0,1776000000.0,0.4350808427,126000000,985000000.0,126000000.0,1111000000.0,9000000.0,1226000000.0,3523000000.0,13000000.0,48000000.0,115000000.0,665000000.0,0.1629103381,550000000.0,0.1347378736,-26000000.0,524000000.0,0.1283684468,125000000.0,386000000.0,0.0945614895,1.39,1.38,277200000,280200000,https://www.sec.gov/Archives/edgar/data/79879/000007987914000054/0000079879-14-000054-index.htm,https://www.sec.gov/Archives/edgar/data/79879/000007987914000054/ppg630201410q.htm,14.725829725829726,1.3924963924963925,0.8585858585858586,0.3932178932178932,10.508658008658008,33.83838383838384,18.39105339105339,22.481962481962483,12.377344877344877,29128176000.0,30525176000.0,18.86539896373057,7.135760901518863,122.38729411764706,267.2309724770642,4.67396919127086,4.67396919127086,7.47799510044096,45.90252030075188,128.25704201680674,280.0474862385321,0.013251773815154,0.0037420812068699,0.5428433889602053,0.1955491329479768,2.100751879699248,1.820838371624345,11.458333333333334,0.5964912280701754,0.0031584538626792,0.238341968911917,0.2413032827045566,0.0308672219500244,0.247514450867052,0.542016806722689,0.0316021558059774,1.1217391304347826,0.0048995590396864,26.5402743425604,0.0328134223868733,0.0296512521124596,-5.905483405483405,4073000000.0,5098000000.0,1115000000.0,11132000000.0,3100000000.0,3678500000.0,1946500000.0,70.20088192062715,142.61058109280137,76.65221162185603,1.282035175879397,0.6310892172961139,1.1741344195519348,0.0619383825417201,0.4653679653679654,2014-07-17,1.39,bmo,3995760563.0,2025-04-25,2014-06-30,0.0215827338129496,99.18126984126984,1305893.7142857143
2014-03-31,PPG,USD,79879,2014-04-24,2014-04-24 15:08:13,2014,Q1,3636000000.0,2091000000.0,1545000000.0,0.4249174917,120000000,900000000.0,120000000.0,1020000000.0,1000000.0,1139000000.0,3229000000.0,12000000.0,47000000.0,119000000.0,499000000.0,0.1372387239,380000000.0,0.104510451,-34000000.0,372000000.0,0.102310231,89000000.0,1262000000.0,0.3470847085,4.54,4.49,278200000,281400000,https://www.sec.gov/Archives/edgar/data/79879/000007987914000032/0000079879-14-000032-index.htm,https://www.sec.gov/Archives/edgar/data/79879/000007987914000032/ppg331201410q.htm,13.069734004313444,4.536304816678649,0.5859094176851186,0.2156721782890007,10.923795830337886,32.99065420560748,17.55212077641984,21.53846153846154,12.361610352264558,26910286000.0,27743286000.0,5.330880744849446,7.401068756875688,165.0937791411043,448.5047666666667,4.491035714285714,4.491035714285714,7.630166666666667,55.59776753507014,170.20420858895704,462.3881,0.0468965658707603,0.0022296307070092,0.5660881174899867,0.1981655663959806,1.6693386773547094,1.946561541830924,8.085106382978724,0.5759717314487632,0.0031586435015963,0.0673534072900158,0.2475247524752475,0.033003300330033,0.2509201378746276,0.6319018404907976,0.0283278327832783,0.865546218487395,0.0049504950495049,46.886704975582845,0.0229980924029734,0.0984245827484011,-6.015456506110712,4322000000.0,4883000000.0,949000000.0,11341000000.0,2876000000.0,2706500000.0,1876500000.0,74.65346534653466,159.38307030129127,83.02725968436155,1.2055702917771882,0.5646772886848501,1.0839813374805598,0.2106141522029372,0.3702372393961179,2014-04-17,0.94,bmo,3415636363.0,2025-04-25,2014-03-31,0.0531914893617021,94.94524590163934,1855062.426229508
2013-12-31,PPG,USD,79879,2014-02-20,2014-02-20 11:41:47,2013,Q4,3702000000.0,2108000000.0,1594000000.0,0.4305780659,126000000,957000000.0,126000000.0,1083000000.0,-24000000.0,1208000000.0,3149000000.0,13000000.0,48000000.0,125000000.0,546000000.0,0.1474878444,406000000.0,0.1096704484,-61000000.0,373000000.0,0.1007563479,91000000.0,254000000.0,0.0686115613,0.9,0.89,281600000,285200000,https://www.sec.gov/Archives/edgar/data/79879/000007987914000010/0000079879-14-000010-index.htm,https://www.sec.gov/Archives/edgar/data/79879/000007987914000010/ppg-20131231x10k.htm,13.146306818181818,0.9019886363636364,1.8075284090909087,0.8984375,6.196732954545454,29.673295454545453,14.236505681818182,17.514204545454547,12.265625,26704128000.0,28994128000.0,26.283590551181103,7.213432739059968,52.463905697445966,105.54991304347826,5.414462287104622,5.414462287104622,7.832017287952458,53.10279853479854,56.96292337917485,114.60129644268774,0.0095116380508661,0.009474190656965,0.6905920519059205,0.2147134842085356,4.194139194139194,1.7446191051995164,8.458333333333334,1.8049645390070923,0.0032204758754901,0.3385826771653543,0.2585089141004862,0.0340356564019448,0.2740339154006178,0.5029469548133595,0.0691518098325229,2.048,0.0059427336574824,18.853283618148268,0.0260966724759563,0.022056269538034,-9.936079545454543,3079000000.0,4009000000.0,-293000000.0,10302000000.0,2929000000.0,2604000000.0,1851000000.0,66.51539708265801,73.00759013282732,77.87476280834915,1.3530701754385963,1.2327485380116958,1.155701754385965,0.051500405515004,0.9090909090909092,2014-01-16,0.86,bmo,3307692307.0,2025-04-25,2013-12-31,0.0581395348837209,90.0965625,1511293.09375
2013-09-30,PPG,USD,79879,2013-10-28,2013-10-28 13:32:34,2013,Q3,3980000000.0,2238000000.0,1742000000.0,0.4376884422,123000000,964000000.0,123000000.0,1087000000.0,-91000000.0,1206000000.0,3490000000.0,11000000.0,48000000.0,119000000.0,467000000.0,0.1173366834,354000000.0,0.0889447236,-226000000.0,309000000.0,0.077638191,60000000.0,226000000.0,0.0567839196,0.79,0.78,286400000,289800000,https://www.sec.gov/Archives/edgar/data/79879/000007987913000058/0000079879-13-000058-index.htm,https://www.sec.gov/Archives/edgar/data/79879/000007987913000058/ppg930201310q.htm,13.896648044692736,0.7891061452513967,2.7513966480446927,2.388268156424581,7.852653631284916,19.137569832402235,3.795391061452514,18.19483240223464,12.021648044692736,23922992000.0,25755992000.0,26.46348672566372,6.010802010050251,30.3591269035533,34.97513450292398,4.590863941661869,4.590863941661869,6.471354773869347,55.15201713062098,32.685269035533,37.654959064327485,0.0094469788728767,0.0285917413674677,0.6515064287085013,0.2569439188677817,3.925053533190578,1.861365719523373,7.375,3.1646586345381524,0.0036784696496157,0.3893805309734513,0.2422110552763819,0.0309045226130653,0.3325512752592144,0.1319796954314721,0.0261306532663316,0.8739495798319328,0.0067839195979899,17.973514301869518,0.0231845038948577,0.0256264882639755,-7.6902932960893855,3759000000.0,1087000000.0,391000000.0,10840000000.0,3172500000.0,3419500000.0,1870000000.0,70.59798994974874,140.67024128686327,75.52278820375335,1.2748238308776425,0.6397941680960549,1.1916932907348243,0.0433697946651314,0.3631284916201117,2013-10-17,1.17,bmo,3619327868.0,2025-04-25,2013-09-30,0.0427350427350427,79.98531249999999,1258124.625
2013-06-30,PPG,USD,79879,2013-07-29,2013-07-29 14:02:32,2013,Q2,4095000000.0,2343000000.0,1752000000.0,0.4278388278,124000000,981000000.0,124000000.0,1105000000.0,2000000.0,1229000000.0,3423000000.0,9000000.0,47000000.0,124000000.0,588000000.0,0.1435897436,434000000.0,0.105982906,-36000000.0,489000000.0,0.1194139194,118000000.0,341000000.0,0.0832722833,1.19,1.18,286800000,290000000,https://www.sec.gov/Archives/edgar/data/79879/000007987913000047/0000079879-13-000047-index.htm,https://www.sec.gov/Archives/edgar/data/79879/000007987913000047/ppg630201310q.htm,14.278242677824268,1.1889818688981868,2.0327754532775453,1.7189679218967922,6.209902370990237,30.00348675034867,14.9721059972106,17.580195258019526,11.94560669456067,21286296000.0,23422296000.0,15.605788856304986,5.1981186813186815,36.51165694682676,43.17707099391481,4.221796112653709,4.221796112653709,5.719730402930403,39.83383673469388,40.17546483704975,47.509728194726165,0.016019696428162,0.0231604408770788,0.6701705672352242,0.2103199302875638,3.63265306122449,1.8777398928397464,9.23404255319149,1.5714285714285714,0.0040871366253668,0.2551319648093841,0.2395604395604395,0.0302808302808302,0.2683306361259803,0.1543739279588336,0.0219780219780219,0.7258064516129032,0.0041514041514041,21.686562701433107,0.0274759665921296,0.0290089323692045,-8.130230125523013,3604000000.0,4294000000.0,249000000.0,10552000000.0,3023500000.0,3140500000.0,1780000000.0,70.83516483516483,128.33546734955186,71.52368758002561,1.2705553831833696,0.7012870398084405,1.2583243823845327,0.067631892106307,0.3138075313807531,2013-07-18,1.17,bmo,3693585365.0,2025-04-25,2013-06-30,0.0512820512820513,74.07390625,1656602.65625
2013-03-31,PPG,USD,79879,2013-04-29,2013-04-29 13:52:51,2013,Q1,3331000000.0,1947000000.0,1384000000.0,0.4154908436,115000000,797000000.0,115000000.0,912000000.0,-6000000.0,1019000000.0,2824000000.0,10000000.0,53000000.0,107000000.0,395000000.0,0.1185830081,271000000.0,0.0813569499,-49000000.0,318000000.0,0.0954668268,64000000.0,2410000000.0,0.7235064545,8.24,8.15,292200000,295400000,https://www.sec.gov/Archives/edgar/data/79879/000007987913000033/0000079879-13-000033-index.htm,https://www.sec.gov/Archives/edgar/data/79879/000007987913000033/ppg331201310q.htm,11.399726214921287,8.247775496235455,-0.3045859000684462,-0.5270362765229295,8.145106091718,28.39151266255989,15.636550308008214,16.38261464750171,11.820670773442847,19600776000.0,20980776000.0,2.033275518672199,5.884351846292405,-220.2334382022472,-127.27776623376624,4.094584499686651,4.094584499686651,6.298641849294506,53.11588860759494,-235.73905617977528,-136.2388051948052,0.1229543156862769,-0.0078568317907413,0.7104658449968665,0.2211888657648283,3.4936708860759493,2.072980949825597,5.113207547169812,-0.3503937007874015,0.0042855446131316,0.0348547717842323,0.2392674872410687,0.0345241669168417,0.2423907388137356,-0.7303370786516854,0.0195136595616931,0.6074766355140186,0.0045031522065445,55.13803471482717,0.018505524450445,0.2068847111340029,-5.930869267624915,3999000000.0,4569000000.0,646000000.0,10187000000.0,2818500000.0,2684000000.0,1692000000.0,76.30141098769138,135.90138674884437,78.48998459167952,1.1795325779036827,0.6622448979591836,1.146643109540636,0.5034468351786088,0.2224503764544832,2013-04-18,0.78,bmo,3029316455.0,2025-04-25,2013-03-31,0.0128205128205128,69.12349999999999,6490378.8
2012-12-31,PPG,USD,79879,2013-02-21,2013-02-21 10:37:46,2012,Q4,3648000000.0,2200000000.0,1448000000.0,0.3969298246,118000000,677000000.0,288000000.0,965000000.0,17000000.0,1082000000.0,2922000000.0,10000000.0,55000000.0,117000000.0,510000000.0,0.1398026316,446000000.0,0.1222587719,-79000000.0,338000000.0,0.0926535088,85000000.0,227000000.0,0.0622258772,0.74,0.73,308200000,312200000,https://www.sec.gov/Archives/edgar/data/79879/000007987913000016/0000079879-13-000016-index.htm,https://www.sec.gov/Archives/edgar/data/79879/000007987913000016/ppg-20121231x10k.htm,11.836469824789098,0.736534717715769,2.426995457495133,1.826735885788449,7.764438676184296,14.023361453601558,1.54445165476963,13.1829980532122,13.189487345879298,20858976000.000004,23475976000.000004,22.972440528634365,5.71792105263158,27.88633155080214,37.04969094138544,5.133885306423825,5.133885306423825,6.435300438596492,46.03132549019609,31.384994652406423,41.69800355239788,0.0108826051671951,0.026990778454321,0.9869554516367216,0.3301226640322713,5.131372549019608,1.728068207314337,8.10909090909091,2.9565217391304346,0.0043626302652632,0.4008810572687225,0.1855811403508772,0.0323464912280701,0.3166213879970363,0.2473262032085561,0.0507127192982456,1.5811965811965811,0.0049342105263157,14.780698710474718,0.0277045839573768,0.0273461028791711,-8.044289422452952,3245000000.0,476000000.0,-123000000.0,9979000000.0,3001500000.0,1214000000.0,1731500000.0,69.39967105263158,99.32727272727271,68.97272727272727,1.2968361180234624,0.9060955518945636,1.3048635824436536,0.0558700467634752,0.600259571706684,2013-01-14,0.77,bmo,3243000000.0,2025-04-25,2012-12-31,0.0,60.82064516129032,2276844.4516129037
2012-09-30,PPG,USD,79879,2012-10-29,2012-10-29 13:37:25,2012,Q3,3845000000.0,2288000000.0,1557000000.0,0.4049414824,113000000,779000000.0,150000000.0,929000000.0,116000000.0,1045000000.0,3333000000.0,10000000.0,54000000.0,116000000.0,638000000.0,0.1659297789,512000000.0,0.133159948,-110000000.0,486000000.0,0.1263979194,122000000.0,339000000.0,0.0881664499,1.11,1.09,307400000,311000000,https://www.sec.gov/Archives/edgar/data/79879/000007987912000018/0000079879-12-000018-index.htm,https://www.sec.gov/Archives/edgar/data/79879/000007987912000018/ppg930201210q.htm,12.508132726089784,1.102797657774886,1.9681197137280413,1.7078724788549122,6.541964866623292,13.441769681197137,1.1711125569290826,12.560182173064412,13.19128171763175,17761572000.0,20370572000.0,13.098504424778762,4.619394538361508,29.357970247933885,33.83156571428572,4.600251748251748,4.600251748251748,5.297938101430429,31.92879623824452,33.67036694214876,38.80108952380952,0.0190861484557785,0.0295581945111615,1.0362600362600365,0.2563757529155453,4.089341692789969,1.7320712694877505,9.48148148148148,1.6620879120879122,0.0050671190590562,0.2654867256637168,0.2026007802340702,0.0293888166449934,0.2417019095219787,0.1322314049586777,0.0208062418725617,0.6896551724137931,0.0,17.653757060122626,0.0326304672420699,0.0286462734493831,-20.11060507482108,3287000000.0,360000000.0,-3697000000.0,9818000000.0,3250000000.0,0.0,1776000000.0,74.66840052015604,0.0,69.89947552447552,1.2053291536050157,0.0,1.2875633089476646,0.0878010878010878,0.2602472348731294,2012-10-18,1.1,bmo,3347142857.0,2025-04-25,2012-09-30,0.0181818181818181,55.13746031746032,2000273.5873015872
2012-06-30,PPG,USD,79879,2012-07-30,2012-07-30 14:47:23,2012,Q2,3955000000.0,2352000000.0,1603000000.0,0.4053097345,113000000,792000000.0,142000000.0,934000000.0,114000000.0,1048000000.0,3400000000.0,9000000.0,50000000.0,114000000.0,579000000.0,0.1463969659,555000000.0,0.1403286979,-29000000.0,527000000.0,0.1332490518,131000000.0,362000000.0,0.0915297092,1.19,1.17,306400000,310000000,https://www.sec.gov/Archives/edgar/data/79879/000119312512322176/0001193125-12-322176-index.htm,https://www.sec.gov/Archives/edgar/data/79879/000119312512322176/d361660d10q.htm,12.907963446475195,1.181462140992167,1.422976501305483,1.1684073107049608,4.069843342036553,11.994125326370757,-0.1174934725848564,11.295691906005224,11.948433420365536,16257584000.0,18851584000.0,11.227613259668509,4.110640707964602,37.28803669724771,45.412245810055865,4.69736607916787,4.69736607916787,4.766519342604298,32.55886701208981,43.23757798165138,52.65805586592179,0.0222665311155704,0.0220204920977188,1.0433400751227968,0.3222956087111746,4.48013816925734,1.5664841182913471,11.1,1.101010101010101,0.0055358779016611,0.2486187845303867,0.2002528445006321,0.0285714285714285,0.3312209925026776,0.1788990825688073,0.0197218710493046,0.6842105263157895,0.0,17.32836483120316,0.0382640469948934,0.0483117576404644,-9.503916449086162,2586000000.0,-36000000.0,-378000000.0,9016000000.0,3273000000.0,0.0,1802500000.0,75.32237673830593,0.0,67.92091836734694,1.1948640483383686,0.0,1.3250704225352112,0.1045940479630164,0.2545691906005222,2012-07-19,1.18,bmo,3528000000.0,2025-04-25,2012-06-30,0.0,50.90174603174603,2790653.6825396824
2012-03-31,PPG,USD,79879,2012-04-30,2012-04-30 13:40:09,2012,Q1,3752000000.0,2229000000.0,1523000000.0,0.4059168443,111000000,823000000.0,139000000.0,962000000.0,118000000.0,1080000000.0,3309000000.0,10000000.0,51000000.0,118000000.0,571000000.0,0.1521855011,443000000.0,0.1180703625,-393000000.0,51000000.0,0.0135927505,38000000.0,13000000.0,0.0034648188,0.04,0.04,305600000,309000000,https://www.sec.gov/Archives/edgar/data/79879/000119312512194978/0001193125-12-194978-index.htm,https://www.sec.gov/Archives/edgar/data/79879/000119312512194978/d323902d10q.htm,12.277486910994764,0.0425392670157068,-0.006544502617801,-0.2290575916230366,3.3835078534031413,11.50523560209424,-1.1289267015706803,10.775523560209423,12.133507853403142,14638240000.0,17317240000.0,281.50461538461536,3.901449893390192,-7319.12,-209.1177142857143,4.445259641664136,4.445259641664136,4.61546908315565,30.327915936952717,-8658.62,-247.38914285714284,0.0008880849063821,-0.0047819956497502,1.1105375037959309,0.2465282459215316,4.691768826619965,1.5234752084247476,8.686274509803921,-0.0392156862745098,0.0059433374504038,6.6923076923076925,0.2193496801705756,0.0295842217484008,0.2602804368342996,-34.0,0.0181236673773987,0.576271186440678,0.0,3.211481692948013,0.0103171830632664,0.0011847261459947,-22.715968586387437,2386000000.0,-345000000.0,-4374000000.0,9032000000.0,3033000000.0,1211500000.0,1718500000.0,77.62260127931769,0.0,73.88963660834455,1.1594561186650183,0.0,1.218032786885246,0.0039477679927118,0.2225130890052356,2012-04-19,0.85,bmo,3113241758.0,2025-04-25,2012-03-31,0.0705882352941177,45.45903225806452,1767715.1290322582
2011-12-31,PPG,USD,79879,2012-02-16,2012-02-16 11:47:39,2011,Q4,3517000000.0,2184000000.0,1333000000.0,0.379016207,109000000,0.0,0.0,802000000.0,115000000.0,1026000000.0,3210000000.0,10000000.0,51000000.0,115000000.0,450000000.0,0.1279499574,307000000.0,0.0872903042,-23000000.0,284000000.0,0.0807506397,45000000.0,216000000.0,0.0614159795,0.71,0.71,305600000,305600000,https://www.sec.gov/Archives/edgar/data/79879/000119312512064763/0001193125-12-064763-index.htm,https://www.sec.gov/Archives/edgar/data/79879/000119312512064763/d260697d10k.htm,11.508507853403142,0.7068062827225131,2.156413612565445,1.649214659685864,4.849476439790576,11.276178010471204,-1.1092931937172774,10.6315445026178,12.215314136125654,12758800000.0,14983800000.0,14.767129629629627,3.6277509240830255,19.3608497723824,25.315079365079367,3.926992920898738,3.926992920898738,4.260392379869207,33.297333333333334,22.73717754172989,29.729761904761904,0.0169294918017368,0.0395021475373859,1.1332717759310558,0.2560144625225977,4.944444444444445,1.808211777417612,6.019607843137255,2.757322175732217,0.0039972411198545,0.2361111111111111,0.0,0.030992323002559,0.2631761924628007,0.2352048558421851,0.044071651976116,1.3478260869565215,0.0,13.002882569400557,0.0239484273083812,0.0203831273001792,-21.361256544502616,2992000000.0,-339000000.0,-4242000000.0,9498000000.0,2959000000.0,1211500000.0,1672000000.0,72.41967586010804,99.8489010989011,66.22252747252747,1.242756183745583,0.9013619479983492,1.359054138145613,0.0664819944598338,0.5071989528795812,2012-01-19,0.64,bmo,3410424242.0,2025-04-25,2011-12-31,0.03125,41.22238095238096,2441378.285714286
2011-09-30,PPG,USD,79879,2011-10-31,2011-10-31 13:33:06,2011,Q3,3849000000.0,2353000000.0,1496000000.0,0.3886723824,108000000,0.0,0.0,914000000.0,116000000.0,1030000000.0,3383000000.0,11000000.0,51000000.0,116000000.0,629000000.0,0.1634190699,466000000.0,0.1210704079,-4000000.0,462000000.0,0.1200311769,120000000.0,311000000.0,0.0808002078,0.99,0.98,313600000,317200000,https://www.sec.gov/Archives/edgar/data/79879/000119312511288218/0001193125-11-288218-index.htm,https://www.sec.gov/Archives/edgar/data/79879/000119312511288218/d233076d10q.htm,12.27359693877551,0.9917091836734694,1.6741071428571428,1.3520408163265305,4.266581632653061,12.455357142857142,0.1084183673469387,11.677295918367347,11.935586734693878,11079488000.0,13470488000.0,8.90634083601286,2.878536762795531,21.103786666666668,26.130867924528303,3.0255292190060072,3.0255292190060072,3.499737074564822,21.415720190779016,25.65807238095238,31.770018867924527,0.0280698891501123,0.0382689163975808,1.0081922446750409,0.2538678401980334,3.801271860095389,1.832101372756072,9.137254901960784,1.5350877192982455,0.0052348989411785,0.1864951768488746,0.0,0.0280592361652377,0.2662449288317403,0.1923809523809523,0.0262405819693426,0.8706896551724138,0.0,16.141896916445305,0.0317731453404291,0.0291444100834036,-19.497767857142858,3152000000.0,34000000.0,-3697000000.0,9693000000.0,3216500000.0,0.0,1779000000.0,72.20576773187841,0.0,66.43858903527412,1.2464378238341969,0.0,1.3546344271732873,0.0849262697979246,0.3220663265306122,2011-10-20,0.96,bmo,3770448979.0,2025-04-25,2011-09-30,0.0208333333333333,39.57875,3466043.59375
2011-06-30,PPG,USD,79879,2011-08-01,2011-08-01 15:26:18,2011,Q2,3986000000.0,2417000000.0,1569000000.0,0.3936276969,110000000,0.0,0.0,939000000.0,119000000.0,1058000000.0,3475000000.0,11000000.0,55000000.0,119000000.0,674000000.0,0.1690918214,511000000.0,0.1281986954,-11000000.0,500000000.0,0.1254390366,128000000.0,340000000.0,0.0852985449,1.08,1.06,316400000,320600000,https://www.sec.gov/Archives/edgar/data/79879/000119312511204498/0001193125-11-204498-index.htm,https://www.sec.gov/Archives/edgar/data/79879/000119312511204498/d10q.htm,12.597977243994944,1.0745891276864727,1.2895069532237673,1.036662452591656,3.934892541087231,13.552465233881165,0.4329962073324905,12.812895069532235,11.943742098609356,14361396000.0,17103396000.0,10.55985,3.6029593577521326,35.1995,43.78474390243903,3.542524913665516,3.542524913665516,4.290867034621174,25.375958456973297,41.92008823529411,52.1445,0.0236745787108718,0.0228390053446057,0.9185989146521952,0.243924805135259,4.068249258160237,1.845741968383478,9.290909090909093,1.2,0.0084253647765161,0.3558823529411765,0.0,0.0275965880582037,0.2718936267767079,0.196078431372549,0.0200702458605117,0.6722689075630253,0.0,17.600950231675178,0.0331864525139664,0.0305865419215545,-19.958122629582807,3317000000.0,137000000.0,-3740000000.0,10227000000.0,3235500000.0,0.0,1788000000.0,75.52684395383844,0.0,67.80719900703352,1.1916292974588938,0.0,1.327292696320703,0.0838677849037987,0.2528445006321112,2011-07-21,1.01,bmo,3797981132.0,2025-04-25,2011-06-30,0.0495049504950495,44.87063492063492,2274378.095238095
2011-03-31,PPG,USD,79879,2011-05-02,2011-05-02 13:50:15,2011,Q1,3533000000.0,2127000000.0,1406000000.0,0.3979620719,103000000,0.0,0.0,900000000.0,117000000.0,964000000.0,3091000000.0,10000000.0,53000000.0,117000000.0,521000000.0,0.1474667421,389000000.0,0.1101047269,-38000000.0,351000000.0,0.0993489952,92000000.0,228000000.0,0.06453439,0.71,0.7,320800000,325000000,https://www.sec.gov/Archives/edgar/data/79879/000119312511120981/0001193125-11-120981-index.htm,https://www.sec.gov/Archives/edgar/data/79879/000119312511120981/d10q.htm,11.013092269326684,0.7107231920199502,-0.486284289276808,-0.6546134663341646,4.311097256857855,12.453241895261844,-0.3179551122194514,11.739401496259353,12.91147132169576,15273288000.0,18566288000.0,16.747026315789473,4.3230365128785735,-97.9056923076923,-72.72994285714286,4.055573021773766,4.055573021773766,5.255105575997735,35.63586948176584,-119.01466666666668,-88.41089523809524,0.0149280233568567,-0.0137494951971049,1.0857673924588422,0.2707409124015096,6.320537428023033,1.8895705521472392,7.339622641509434,-0.6842105263157895,0.0058271670121063,0.3903508771929824,0.0,0.0291536937446928,0.2712706084883798,-0.3461538461538461,0.0152844607981885,0.4615384615384615,0.0,13.701385343682134,0.0250689856803393,0.0207159731055787,-20.27119700748129,3335000000.0,-102000000.0,-4024000000.0,10128000000.0,2952000000.0,813000000.0,1664000000.0,79.63204075856214,0.0,74.25952045133992,1.1301983365323096,0.0,1.211965811965812,0.0605416887944769,0.1683291770573566,2011-04-21,0.67,bmo,3381585714.0,2025-04-25,2011-03-31,0.0447761194029849,43.255,2723143.096774193
2010-12-31,PPG,USD,79879,2011-02-17,2011-02-17 10:14:47,2010,Q4,3379000000.0,2086000000.0,1293000000.0,0.382657591,104000000,0.0,0.0,768000000.0,121000000.0,993000000.0,3079000000.0,34000000.0,52000000.0,118000000.0,461000000.0,0.1364308967,300000000.0,0.0887836638,-9000000.0,291000000.0,0.0861201539,63000000.0,205000000.0,0.0606688369,0.64,0.64,320800000,320800000,https://www.sec.gov/Archives/edgar/data/79879/000119312511038642/0001193125-11-038642-index.htm,https://www.sec.gov/Archives/edgar/data/79879/000119312511038642/d10k.htm,10.533042394014965,0.6390274314214464,1.9077306733167083,1.4432668329177056,6.165835411471321,11.948254364089776,-0.4800498753117207,11.340399002493765,12.852244389027431,13486432000.0,16216432000.0,16.44686829268293,3.991249482095295,22.03665359477124,29.12836285097192,3.7071006047278727,3.7071006047278727,4.799180822728618,35.1766420824295,26.49743790849673,35.02469114470842,0.015200462212689,0.0343308000218293,1.1190214403518417,0.2718530884808013,5.921908893709327,1.9470344827586208,5.769230769230769,2.985365853658537,0.0108256950392809,0.7121951219512195,0.0,0.0307783367860313,0.2662437395659432,0.2434640522875817,0.0440958863569103,0.0,0.0,12.769243753323972,0.0206584238347471,0.0186567164179104,-19.61970074812968,3433000000.0,-154000000.0,-4084000000.0,10106000000.0,2868000000.0,813000000.0,1605500000.0,73.99230541580349,70.15340364333653,67.8667305848514,1.2163426925845933,1.2829028290282902,1.326128417037508,0.0563496426608026,0.4644638403990025,2011-01-20,0.56,bmo,3003555555.0,2025-04-25,2010-12-31,0.1249999999999999,39.21625,2200534.90625
2010-09-30,PPG,USD,79879,2010-11-01,2010-11-01 13:31:56,2010,Q3,3460000000.0,2108000000.0,1352000000.0,0.3907514451,97000000,0.0,0.0,836000000.0,119000000.0,952000000.0,3060000000.0,9000000.0,46000000.0,116000000.0,548000000.0,0.1583815029,397000000.0,0.1147398844,-14000000.0,386000000.0,0.1115606936,94000000.0,262000000.0,0.0757225434,0.8,0.79,328400000,330800000,https://www.sec.gov/Archives/edgar/data/79879/000119312510242348/0001193125-10-242348-index.htm,https://www.sec.gov/Archives/edgar/data/79879/000119312510242348/d10q.htm,10.53593179049939,0.7978075517661388,1.007917174177832,0.8099878197320342,2.831912302070646,12.490864799025578,0.243605359317905,11.79658952496955,9.686358099878197,11953760000.0,14158760000.0,11.406259541984731,3.454843930635838,36.11407854984894,44.938947368421054,3.085637583892617,3.085637583892617,4.092127167630058,25.837153284671533,42.77570996978852,53.22842105263158,0.0219177898836851,0.0222524126300009,0.8092410944759938,0.2220254957507082,4.023722627737226,1.7896678966789668,8.630434782608695,1.263358778625954,0.0077799788518424,0.3549618320610687,0.0,0.0280346820809248,0.2848441926345609,0.1963746223564954,0.01878612716763,0.5603448275862069,-0.0023121387283236,14.55186189744755,0.0281568763850849,0.0259457318280847,-18.424177831912303,2782000000.0,80000000.0,-3713000000.0,9424000000.0,2869500000.0,0.0,1589500000.0,76.94219653179191,0.0,69.9335863377609,1.169709263015551,0.0,1.286935286935287,0.0676303562209602,0.1979293544457978,2010-10-21,0.73,bmo,3157249999.0,2025-04-25,2010-09-30,0.0958904109589042,33.92515625,2712208.8125
2010-06-30,PPG,USD,79879,2010-07-26,2010-07-26 13:34:32,2010,Q2,3458000000.0,2076000000.0,1382000000.0,0.3996529786,97000000,0.0,0.0,842000000.0,118000000.0,957000000.0,3033000000.0,0.0,46000000.0,115000000.0,573000000.0,0.1657027183,422000000.0,0.1220358589,-13000000.0,412000000.0,0.1191440139,111000000.0,272000000.0,0.0786581839,0.82,0.82,330800000,333200000,https://www.sec.gov/Archives/edgar/data/79879/000119312510165782/0001193125-10-165782-index.htm,https://www.sec.gov/Archives/edgar/data/79879/000119312510165782/d10q.htm,10.453446191051995,0.8222490931076178,1.2726723095525998,1.1275695284159613,2.370012091898428,11.000604594921402,-0.3778718258766626,10.429262394195888,9.437726723095526,9993468000.0,12285468000.0,9.185172794117648,2.889956043956044,23.737453681710218,26.79213941018767,2.8966573913043483,2.8966573913043483,3.552766917293233,21.440607329842933,29.181634204275536,32.936911528150134,0.0272177786530161,0.0373243802852023,0.8915942028985507,0.2301361663923387,4.0,1.7450340942780906,9.173913043478262,1.5477941176470589,0.0118077127979996,0.4338235294117647,0.0,0.0280508964719491,0.2816100553643573,0.1140142517814726,0.0138808559861191,0.417391304347826,0.0,13.89056009568014,0.030671092841496,0.0283274317850447,-18.40009068923821,2513000000.0,-125000000.0,-3841000000.0,8810000000.0,2795000000.0,0.0,1570000000.0,72.37998843262001,0.0,66.80635838150289,1.2434376123696511,0.0,1.3471771576898115,0.0788405797101449,0.1451027811366384,2010-07-15,0.72,bmo,3036292682.0,2025-04-25,2010-06-30,0.1388888888888888,33.03317460317461,3486721.396825397
2010-03-31,PPG,USD,79879,2010-04-26,2010-04-26 14:04:42,2010,Q1,3126000000.0,1944000000.0,1182000000.0,0.3781190019,96000000,0.0,0.0,823000000.0,124000000.0,947000000.0,2891000000.0,0.0,45000000.0,121000000.0,372000000.0,0.1190019194,235000000.0,0.0751759437,-32000000.0,206000000.0,0.0658989123,147000000.0,30000000.0,0.009596929,0.09,0.09,331800000,334000000,https://www.sec.gov/Archives/edgar/data/79879/000119312510093068/0001193125-10-093068-index.htm,https://www.sec.gov/Archives/edgar/data/79879/000119312510093068/d10q.htm,9.42133815551537,0.0904159132007233,-0.162748643761302,-0.298372513562387,2.076552139843279,11.419529837251355,-0.7263411693791441,10.82579867389994,9.66847498493068,10849860000.0,13323860000.0,90.4155,3.47084452975048,-200.92333333333332,-109.59454545454544,3.020562360801782,3.020562360801782,4.262271273192578,35.81682795698925,-246.73814814814816,-134.58444444444444,0.0027650126361077,-0.0091245416991555,0.8805679287305123,0.2299360279150916,6.650537634408602,1.732592159157402,5.222222222222222,-1.8,0.0082950379083232,3.0,0.0,0.0307101727447216,0.2929630706600756,-0.8333333333333334,0.0143953934740882,0.371900826446281,0.0,4.69292559579059,0.0064407488270543,0.0030845157310302,-19.203586497890296,2504000000.0,-241000000.0,-4045000000.0,9194000000.0,2718500000.0,692000000.0,1573500000.0,80.87332053742801,0.0,74.02777777777777,1.1128515485938055,0.0,1.2157598499061917,0.0083518930957683,0.1356238698010849,2010-04-15,0.31,bmo,2768742857.0,2025-04-25,2010-03-31,0.129032258064516,31.06065573770492,2748236.9836065574
2009-12-31,PPG,USD,79879,2010-02-18,2010-02-18 10:57:26,2009,Q4,3116000000.0,1934000000.0,1182000000.0,0.3793324775,102000000,0.0,0.0,757000000.0,126000000.0,985000000.0,2919000000.0,28000000.0,49000000.0,123000000.0,372000000.0,0.1193838254,197000000.0,0.0632220796,3000000.0,200000000.0,0.0641848524,37000000.0,142000000.0,0.0455712452,0.43,0.43,331800000,331800000,https://www.sec.gov/Archives/edgar/data/79879/000119312510033939/0001193125-10-033939-index.htm,https://www.sec.gov/Archives/edgar/data/79879/000119312510033939/d10k.htm,9.391199517781796,0.4279686558167571,1.7631103074141048,1.5009041591320071,3.1977094635322483,11.820373719107897,-0.8378541289933695,11.311030741410487,10.232067510548523,9711786000.0,12000786000.0,17.098214788732395,3.116747753530167,16.60134358974359,19.501578313253013,2.587739408473221,2.587739408473221,3.851343388960206,32.26017741935484,20.514164102564106,24.09796385542169,0.0146214094915188,0.0512779008927915,0.8915534239275247,0.2349719101123595,6.153225806451613,1.672071568353369,4.020408163265306,4.119718309859155,0.0143125064740924,0.9788732394366196,0.0,0.0327342747111681,0.2949438202247191,0.1487179487179487,0.0279204107830552,0.0,0.0,10.43634270239474,0.0146826703246456,0.0141434262948207,-19.62628089210368,2404000000.0,-278000000.0,-4337000000.0,9358000000.0,2740500000.0,692000000.0,1602000000.0,75.90500641848523,64.40537745604964,72.03722854188211,1.1856925418569255,1.3973988439306355,1.2493540051679586,0.0378363975486277,0.2622061482820976,2010-01-21,0.37,bmo,2681209302.0,2025-04-25,2009-12-31,0.1621621621621621,29.7121875,2301224.53125
2009-09-30,PPG,USD,79879,2009-10-26,2009-10-26 14:12:27,2009,Q3,3225000000.0,1989000000.0,1236000000.0,0.383255814,95000000,0.0,827000000.0,827000000.0,123000000.0,914000000.0,2903000000.0,0.0,47000000.0,120000000.0,442000000.0,0.1370542636,286000000.0,0.0886821705,-11000000.0,275000000.0,0.0852713178,90000000.0,159000000.0,0.0493023256,0.48,0.48,330400000,332000000,https://www.sec.gov/Archives/edgar/data/79879/000119312509213623/0001193125-09-213623-index.htm,https://www.sec.gov/Archives/edgar/data/79879/000119312509213623/d10q.htm,9.76089588377724,0.4812348668280872,1.9794188861985471,1.8311138014527848,2.7179176755447942,11.301452784503631,-1.5738498789346247,10.70823244552058,10.847457627118644,9617944000.0,12256944000.0,15.122553459119496,2.982308217054264,14.70633639143731,15.897428099173554,2.7184691916336914,2.7184691916336914,3.8006027906976745,27.730642533936653,18.74150458715596,20.25941157024793,0.0165315996849222,0.0629032566627545,0.9997173544375352,0.242775756743771,5.970588235294118,1.614887567846989,6.085106382978723,4.113207547169812,0.0111250387816772,0.6729559748427673,0.0,0.0294573643410852,0.2919898414441622,0.0749235474006116,0.0151937984496124,0.0,0.0,10.767842557118708,0.0172478709099058,0.0154144449830344,-21.09337167070218,2379000000.0,-520000000.0,-4587000000.0,9398000000.0,2850000000.0,0.0,1664000000.0,79.61860465116278,0.0,74.93212669683258,1.1303890641430074,0.0,1.201086956521739,0.0449406444318824,0.1483050847457627,2009-10-15,0.45,bmo,2961734693.0,2025-04-25,2009-09-30,0.0888888888888888,26.7025,3468948.90625
2009-06-30,PPG,USD,79879,2009-07-27,2009-07-27 13:51:09,2009,Q2,3115000000.0,1898000000.0,1217000000.0,0.3906902087,97000000,0.0,828000000.0,828000000.0,122000000.0,950000000.0,2848000000.0,0.0,49000000.0,119000000.0,421000000.0,0.135152488,267000000.0,0.0857142857,-14000000.0,253000000.0,0.0812199037,84000000.0,146000000.0,0.0468699839,0.45,0.45,327600000,328800000,https://www.sec.gov/Archives/edgar/data/79879/000119312509155628/0001193125-09-155628-index.htm,https://www.sec.gov/Archives/edgar/data/79879/000119312509155628/d10q.htm,9.508547008547009,0.4456654456654457,1.2118437118437118,1.0531135531135531,3.211233211233212,10.280830280830282,-2.3626373626373627,9.691697191697193,12.976190476190476,7190820000.0,10340820000.0,12.313047945205478,2.308449438202248,18.112896725440805,20.84295652173913,2.264825196850394,2.264825196850394,3.319685393258427,24.56251781472684,26.047405541561712,29.973391304347825,0.0203036649505897,0.0479778384106402,1.3234645669291338,0.2884998283556471,7.482185273159144,1.5655777669429547,5.448979591836735,2.719178082191781,0.0134894212342959,0.6643835616438356,0.0,0.0311396468699839,0.2843803638860281,0.1309823677581864,0.0166934189406099,0.5909090909090909,0.0,9.858155371788692,0.0157013626777116,0.0140074834500623,-21.897893772893777,2320000000.0,-774000000.0,-4775000000.0,9207000000.0,2780000000.0,0.0,1674500000.0,82.25682182985554,0.0,79.28345626975764,1.094134176325957,0.0,1.1351674641148326,0.0459842519685039,0.1587301587301587,2009-07-16,0.38,bmo,2573260869.0,2025-04-25,2009-06-30,0.2105263157894737,22.02857142857143,3846711.1746031744
2009-03-31,PPG,USD,79879,2009-04-27,2009-04-27 14:01:32,2009,Q1,2783000000.0,1718000000.0,1065000000.0,0.3826805605,94000000,0.0,0.0,716000000.0,122000000.0,932000000.0,2650000000.0,0.0,48000000.0,118000000.0,55000000.0,0.0197628458,133000000.0,0.0477901545,-244000000.0,-111000000.0,-0.0398850162,-20000000.0,-111000000.0,-0.0398850162,-0.34,-0.34,328000000,328800000,https://www.sec.gov/Archives/edgar/data/79879/000119312509088263/0001193125-09-088263-index.htm,https://www.sec.gov/Archives/edgar/data/79879/000119312509088263/d10q.htm,8.484756097560975,-0.3384146341463415,-0.8871951219512195,-1.0426829268292683,1.6189024390243902,9.15548780487805,-2.832317073170732,8.628048780487806,11.899390243902438,6051600000.0,9375600000.0,-13.629729729729728,2.174487962630255,-20.79587628865979,-17.694736842105264,2.1383745583038865,2.1383745583038865,3.368882500898311,170.46545454545455,-32.21855670103093,-27.4140350877193,-0.0183422565932976,-0.056513979773944,1.362190812720848,0.2833933691097552,60.43636363636364,1.4534005037783375,2.770833333333333,2.621621621621621,0.0143763632758278,-0.7837837837837838,0.0,0.0337765001796622,0.2890538851723884,-0.1752577319587628,0.0183255479698167,0.5795454545454546,0.0,,0.0103824067830923,-0.0114776134836107,-21.93826219512195,1800000000.0,-929000000.0,-4830000000.0,8390000000.0,1356500000.0,701000000.0,1689500000.0,87.73625583902263,0.0,87.85215366705472,1.025801695539993,0.0,1.024448419797257,-0.0392226148409894,0.1554878048780487,2009-04-16,0.07,bmo,1948099999.0,2025-04-25,2009-03-31,0.4285714285714285,18.3155737704918,4697596.163934426
2008-12-31,PPG,USD,79879,2009-02-19,2009-02-19 11:39:34,2008,Q4,3188000000.0,2029000000.0,1159000000.0,0.3635508156,107000000,0.0,0.0,750000000.0,122000000.0,979000000.0,3008000000.0,0.0,0.0,118000000.0,216000000.0,0.0677540778,180000000.0,0.0564617315,-52000000.0,128000000.0,0.0401505646,46000000.0,71000000.0,0.0222710163,0.22,0.22,328000000,328000000,https://www.sec.gov/Archives/edgar/data/79879/000119312509032796/0001193125-09-032796-index.htm,https://www.sec.gov/Archives/edgar/data/79879/000119312509032796/d10k.htm,9.71951219512195,0.2164634146341463,1.670731707317073,1.2195121951219512,3.1128048780487805,10.16158536585366,-2.3780487804878048,10.16158536585366,11.926829268292684,6956880000.0,9847880000.0,24.49605633802817,2.1822082810539523,12.695036496350363,17.3922,2.0872727272727274,2.0872727272727274,3.0890464240903386,45.59203703703704,17.970583941605838,24.6197,0.0102057244051931,0.0574970389024965,1.1737173717371736,0.2661586610423186,13.38425925925926,1.5078384798099762,0.0,7.71830985915493,0.0125056059612929,1.2253521126760565,0.0,0.0335633626097867,0.2798339910191862,0.2700729927007299,0.0464240903387703,0.0,0.0,7.035002344971445,0.0101231235185672,0.0067076051015588,-28.942073170731707,2138000000.0,-780000000.0,-5017000000.0,9049000000.0,1726500000.0,2265000000.0,1760000000.0,0.0,62.18827008378512,75.49531789058649,0.0,1.4472182596291012,1.192126909518214,0.0213021302130213,0.4512195121951219,2009-01-16,0.2,bmo,3036190476.0,2025-04-25,2008-12-31,0.0499999999999999,22.79171875,3463811.78125
2008-09-30,PPG,USD,79879,2008-10-27,2008-10-27 13:39:38,2008,Q3,4225000000.0,2701000000.0,1524000000.0,0.3607100592,114000000,0.0,0.0,877000000.0,139000000.0,1130000000.0,3831000000.0,0.0,62000000.0,139000000.0,404000000.0,0.0956213018,394000000.0,0.0932544379,-186000000.0,203000000.0,0.0480473373,65000000.0,117000000.0,0.0276923077,0.36,0.35,329400000,331200000,https://www.sec.gov/Archives/edgar/data/79879/000119312508216731/0001193125-08-216731-index.htm,https://www.sec.gov/Archives/edgar/data/79879/000119312508216731/d10q.htm,12.82635094110504,0.3551912568306011,1.3691560412871888,1.0989678202792956,1.5664845173041897,13.266545233758348,0.2975106253794778,12.76259866423801,12.170613236187007,9605304000.0,13036304000.0,20.524153846153848,2.2734447337278105,21.29779157427938,26.53398895027624,2.284801141769743,2.284801141769743,3.0855157396449706,32.26807920792079,28.90533037694013,36.01188950276243,0.0121807701245062,0.0376875109835149,0.9388677450047572,0.2623288581682839,8.492574257425742,1.472141418661893,6.354838709677419,3.8547008547008543,0.01041091463633,0.8547008547008547,0.0,0.02698224852071,0.2839292835305064,0.1973392461197339,0.0210650887573964,0.0,0.0,10.099315711940244,0.0236965729923046,0.0108594765175422,-20.22237401335762,2110000000.0,98000000.0,-4097000000.0,9215000000.0,3680000000.0,3222000000.0,1971000000.0,73.5550295857988,104.22806368011848,60.5775638652351,1.223573704025485,0.8634910485933504,1.4856985698569858,0.0278306374881065,0.2701882210078931,2008-10-16,0.64,bmo,3918840579.0,2025-04-25,2008-09-30,0.0781249999999998,30.848125,3506407.125
2008-06-30,PPG,USD,79879,2008-07-28,2008-07-28 14:20:25,2008,Q2,4474000000.0,2829000000.0,1645000000.0,0.3676799285,118000000,0.0,0.0,936000000.0,165000000.0,1219000000.0,4048000000.0,0.0,65000000.0,165000000.0,624000000.0,0.1394725078,426000000.0,0.0952168082,-28000000.0,394000000.0,0.0880643719,116000000.0,250000000.0,0.0558784086,0.76,0.76,329200000,331200000,https://www.sec.gov/Archives/edgar/data/79879/000119312508158853/0001193125-08-158853-index.htm,https://www.sec.gov/Archives/edgar/data/79879/000119312508158853/d10q.htm,13.59052247873633,0.7594167679222357,0.9416767922235724,0.6834750911300121,0.8080194410692588,14.635479951397327,0.6652490886998785,14.046172539489673,13.125759416767922,9444748000.0,13434748000.0,9.444748,2.1110299508270005,30.46692903225807,41.97665777777778,2.0425493079584776,2.0425493079584776,3.0028493518104606,21.53004487179487,43.337896774193545,59.70999111111111,0.026469737466791,0.0238227637201119,0.9204152249134948,0.2626025791324736,6.394230769230769,1.4944151738672289,6.553846153846154,1.24,0.0136583845328641,0.516,0.0,0.0263746088511399,0.2837662738322947,0.2741935483870967,0.018998658918194,0.6640625,0.0,15.492102065613608,0.0244810783680604,0.0215368711233631,-21.66084447144593,2346000000.0,219000000.0,-4298000000.0,10308000000.0,3670000000.0,3159500000.0,2050500000.0,78.59409924005364,105.49310710498408,67.57158006362673,1.1451241361658562,0.8531363088057901,1.3319209039548023,0.0540657439446366,0.2582017010935601,2008-07-17,0.77,bmo,4253061728.0,2025-04-25,2008-06-30,0.0519480519480519,31.30109375,2564353.6875
2008-03-31,PPG,USD,79879,2008-04-28,2008-04-28 14:09:14,2008,Q1,3720000000.0,2424000000.0,1296000000.0,0.3483870968,111000000,0.0,0.0,822000000.0,141000000.0,1074000000.0,3498000000.0,0.0,64000000.0,141000000.0,388000000.0,0.1043010753,222000000.0,0.0596774194,-39000000.0,162000000.0,0.0435483871,49000000.0,100000000.0,0.0268817204,0.31,0.31,329000000,331200000,https://www.sec.gov/Archives/edgar/data/79879/000119312508092618/0001193125-08-092618-index.htm,https://www.sec.gov/Archives/edgar/data/79879/000119312508092618/d10q.htm,11.306990881458969,0.303951367781155,0.1489361702127659,-0.0364741641337386,0.905775075987842,13.838905775075988,-0.060790273556231,13.29483282674772,13.702127659574469,9952250000.0,14098250000.0,24.880625,2.6753360215053763,203.1071428571429,-829.3541666666666,2.2753200731595795,2.2753200731595795,3.7898521505376346,36.33569587628866,287.71938775510205,-1174.8541666666667,0.0100479791002034,-0.0012057574920244,1.0160036579789666,0.2795144348701176,10.685567010309278,1.5469723953695458,3.46875,0.49,0.0085407822351729,0.85,0.0,0.0298387096774193,0.2876281527140071,1.2448979591836735,0.0163978494623655,0.0,0.0,9.53530854233437,0.01268030231345,0.0088292424509977,-22.75,2457000000.0,-20000000.0,-4397000000.0,10283000000.0,1716500000.0,2092500000.0,1672500000.0,83.05645161290322,111.49752475247526,73.40346534653466,1.0836003495484998,0.8071928071928072,1.2261001517450685,0.0228623685413808,0.1854103343465045,2008-04-17,0.55,bmo,4035370370.0,2025-04-25,2008-03-31,-0.0181818181818181,31.516229508196723,3445774.5901639345
2007-12-31,PPG,USD,79879,2008-02-21,2008-02-21 14:45:57,2007,Q4,2874000000.0,1846000000.0,1028000000.0,0.3576896312,90000000,0.0,0.0,569000000.0,96000000.0,755000000.0,2601000000.0,0.0,0.0,96000000.0,369000000.0,0.1283924843,273000000.0,0.0949895616,19000000.0,292000000.0,0.1016005567,82000000.0,200000000.0,0.0695894224,0.61,0.61,327868852,327868852,https://www.sec.gov/Archives/edgar/data/79879/000119312508035206/0001193125-08-035206-index.htm,https://www.sec.gov/Archives/edgar/data/79879/000119312508035206/d10k.htm,8.76570001227198,0.610000000854,1.36945000191723,1.04005000145607,6.80760000953064,13.06620001829268,6.69780000937692,12.66055001772477,9.2110000128954,11514754082.24,14008754082.24,14.3934426028,4.006525428754349,25.64533203171492,33.767607279296186,2.7739711111153937,2.7739711111153937,4.8743055261795405,37.96410320390244,31.199897733273943,41.08139027049853,0.0173690205254555,0.0296141799959017,0.7275355336063599,0.239132156148547,6.75880758807588,1.5310019309161125,0.0,2.245,0.0073818337233186,0.425,0.0,0.0313152400835073,0.1653337556417768,0.2405345211581291,0.0375782881002087,0.0,0.0,13.182035094648509,0.0200608579174778,0.0189735319229674,-16.55845002318183,2475000000.0,2196000000.0,-1209000000.0,6989000000.0,1248500000.0,1646500000.0,1376500000.0,0.0,57.6273022751896,66.6955579631636,0.0,1.5617597292724197,1.3494152046783623,0.0481811611659841,0.32940000046116,2008-01-17,0.56,bmo,2946169491.0,2025-04-25,2007-12-31,0.0535714285714284,35.88078125,1985679.5
2007-09-30,PPG,USD,79879,2007-10-29,2007-10-29 14:19:57,2007,Q3,2823000000.0,1762000000.0,1061000000.0,0.3758413036,83000000,0.0,0.0,539000000.0,97000000.0,719000000.0,2481000000.0,0.0,0.0,97000000.0,445000000.0,0.157633723,342000000.0,0.1211477152,-7000000.0,335000000.0,0.1186680836,103000000.0,189000000.0,0.0669500531,0.58,0.57,328800000,328800000,https://www.sec.gov/Archives/edgar/data/79879/000119312507228042/0001193125-07-228042-index.htm,https://www.sec.gov/Archives/edgar/data/79879/000119312507228042/d10q.htm,8.585766423357665,0.5748175182481752,0.9671532846715328,0.7816301703163017,0.690389294403893,12.60036496350365,6.240875912408759,12.174574209245742,4.133211678832117,12645648000.0,13777648000.0,16.72704761904762,4.479506907545165,39.76618867924528,49.20485603112841,3.159042717961529,3.159042717961529,4.880498760184201,30.961006741573037,43.32593710691824,53.6095252918288,0.0149458533085848,0.020323197356118,0.3394953784661504,0.1245988814522783,2.5438202247191013,1.7862796833773087,0.0,1.6649214659685865,0.0067216800594164,0.4497354497354497,0.0,0.0294013460857244,0.1917117447510773,0.1918238993710692,0.0216082182075805,0.7439024390243902,0.0,12.5482495586219,0.0294111214695181,0.0214382940108892,-12.079531630170315,2384000000.0,2052000000.0,-1348000000.0,6866000000.0,2540000000.0,2128000000.0,1432500000.0,79.6068012752391,107.82633371169126,70.74347332576617,1.130556668001602,0.8346755092373283,1.272202166064982,0.0472145890582063,0.1855231143552311,2007-10-18,0.69,bmo,3073000000.0,2025-04-25,2007-09-30,0.0,37.83396825396825,2298563.206349206
2007-06-30,PPG,USD,79879,2007-07-30,2007-07-30 14:36:15,2007,Q2,3173000000.0,2017000000.0,1156000000.0,0.3643239836,88000000,0.0,0.0,565000000.0,105000000.0,758000000.0,2775000000.0,0.0,0.0,105000000.0,503000000.0,0.1585250552,398000000.0,0.1254333438,-25000000.0,396000000.0,0.1248030255,124000000.0,249000000.0,0.0784746297,0.76,0.75,329600000,329600000,https://www.sec.gov/Archives/edgar/data/79879/000119312507165246/0001193125-07-165246-index.htm,https://www.sec.gov/Archives/edgar/data/79879/000119312507165246/d10q.htm,9.626820388349516,0.7554611650485437,0.9921116504854368,0.7190533980582524,0.5976941747572816,11.738470873786408,5.358009708737864,11.18021844660194,4.147451456310679,12544576000.0,13714576000.0,12.594955823293176,3.953537976678223,38.362617737003056,52.93070042194093,3.4042268656716423,3.4042268656716423,4.322274188465175,27.26555864811133,41.940599388379205,57.86740928270042,0.0198492161074236,0.018892627379355,0.3709633649932157,0.1279483339573193,2.326043737574553,1.6715057393652937,0.0,1.313253012048193,0.0066164053691412,0.3333333333333333,0.0,0.0277340056728647,0.1968363908648446,0.2752293577981651,0.0283643239836117,0.0,-0.0031515915537346,13.78549851098103,0.0344386164491984,0.0290175970166647,-11.956158980582524,1989000000.0,1766000000.0,-1864000000.0,6627000000.0,2508500000.0,2111500000.0,1469500000.0,73.26504884966909,95.71145265245414,66.03867129400099,1.2284165698799845,0.9403263403263404,1.362837837837838,0.0675712347354138,0.2730582524271844,2007-07-19,0.77,bmo,3155000000.0,2025-04-25,2007-06-30,0.0,37.19952380952381,1801099.0793650793
